1574

1574

1573

1573

1572

1572

1573

1575

1578

1582

1585

1588

1590

1591

1591

1589

1587

1585

1583

1581

1580

1579

1580

1581

1583

1585

1587

1588

1588

1587

1585

1583

1580

1578

1578

1578

1580

1582

1586

1589

1592

1594

1595

1594

1593

1592

1591

1591

1592

1594

1596

1598

1600

1602

1603

1605

1608

1611

1615

1619

1623

1625

1625

1624

1623

1621

1619

1619

1619

1619

1620

1620

1620

1621

1622

1625

1630

1636

1643

1651

1658

1663

1667

1668

1668

1666

1663

1659

1655

1651

1646

1640

1633

1625

1616

1606

1596

1586

1578

1572

1568

1567

1568

1570

1574

1577

1580

1582

1584

1584

1585

1585

1586

1587

1588

1591

1593

1595

1595

1595

1593

1589

1586

1582

1579

1577

1577

1576

1575

1571

1565

1556

1544

1531

1520

1516

1525

1553

1604

1682

1785

1907

2040

2169

2280

2359

2395

2383

2322

2216

2073

1903

1717

1526

1342

1174

1033

925

854

823

828

863

921

989

1060

1126

1182

1228

1266

1301

1335

1374

1418

1467

1520

1572

1619

1659

1688

1707

1716

1716

1711

1703

1694

1687

1683

1681

1681

1683

1686

1689

1691

1692

1692

1692

1692

1692

1693

1694

1696

1699

1701

1702

1703

1702

1701

1699

1698

1696

1695

1694

1694

1695

1697

1699

1703

1706

1709

1712

1714

1714

1714

1712

1710

1707

1704

1702

1701

1701

1702

1705

1709

1714

1719

1722

1724

1725

1724

1724

1723

1724

1726

1729

1733

1738

1742

1747

1751

1755

1758

1760

1761

1761

1760

1758

1756

1755

1754

1754

1756

1757

1759

1761

1763

1763

1763

1762

1761

1760

1759

1760

1760

1762

1762

1762

1760

1757

1751

1744

1736

1729

1723

1719

1715

1712

1709

1704

1698

1691

1682

1673

1663

1654

1644

1634

1624

1614

1604

1594

1585

1576

1568

1561

1555

1549

1544

1539

1535

1530

1526

1522

1518

1515

1513

1512

1510

1510

1509

1509

1509

1508

1508

1508

1509

1510

1512

1514

1517

1520

1522

1525

1526

1527

1526

1525

1523

1521

1519

1518

1518

1519

1522

1524

1528

1531

1534

1536

1539

1541

1544

1546

1547

1549

1550

1551

1551

1552

1552

1553

1553

1553

1553

1552

1552

1552

1553

1553

1554

1554

1554

1554

1554

1554

1555

1556

1557

1558

1559

1559

1559

1558

1558

1559

1560

1561

1562

1563

1563

1562

1562

1561

1560

1560

1560

1561

1563

1565

1568

1571

1573

1575

1575

1575

1574

1572

1570

1569

1569

1569

1570

1572

1573

1574

1575

1575

1574

1574

1573

1573

1573

1572

1572

1573

1573

1573

1574

1574

1575

1575

1575

1576

1576

1577

1579

1580

1581

1582

1583

1583

1583

1583

1583

1584

1584

1585

1586

1587

1589

1590

1591

1591

1591

1590

1589

1588

1587

1588

1589

1591

1594

1596

1598

1599

1599

1599

1598

1597

1597

1596

1596

1597

1597

1598

1599

1601

1603

1606

1609

1613

1617

1622

1626

1629

1631

1632

1630

1627

1624

1621

1619

1619

1621

1624

1627

1631

1634

1636

1638

1640

1643

1647

1652

1657

1663

1667

1669

1669

1667

1663

1657

1650

1645

1640

1636

1633

1625

1618

1610

1600

1590

1580

1572

1567

1565

1565

1568

1571

1575

1578

1581

1583

1584

1586

1586

1587

1588

1588

1588

1588

1589

1589

1589

1588

1587

1586

1585

1584

1584

1585

1585

1584

1581

1574

1563

1548

1532

1518

1511

1517

1543

1594

1674

1780

1908

2045

2180

2295

2378

2418

2410

2351

2248

2108

1940

1756

1566

1380

1209

1062

946

867

828

826

857

912

980

1053

1122

1182

1232

1274

1311

1346

1385

1428

1474

1523

1571

1615

1652

1680

1697

1706

1707

1703

1697

1691

1685

1681

1679

1679

1679

1681

1683

1686

1689

1691

1693

1694

1693

1692

1690

1688

1687

1686

1687

1688

1689

1692

1694

1697

1700

1704

1706

1709

1710

1711

1712

1711

1710

1709

1708

1708

1708

1708

1708

1709

1709

1710

1710

1710

1711

1711

1713

1715

1717

1720

1723

1725

1726

1727

1726

1726

1726

1726

1727

1728

1730

1732

1734

1736

1739

1741

1744

1748

1751

1754

1757

1761

1764

1768

1771

1774

1777

1778

1778

1777

1775

1773

1772

1770

1769

1768

1767

1765

1763

1761

1759

1756

1753

1750

1745

1740

1734

1728

1722

1716

1710

1704

1698

1692

1686

1680

1673

1666

1658

1649

1640

1631

1620

1609

1599

1588

1579

1571

1564

1558

1553

1548

1543

1538

1532

1526

1520

1514

1510

1506

1504

1504

1505

1507

1510

1512

1514

1516

1517

1519

1520

1521

1521

1522

1522

1522

1522

1522

1523

1524

1525

1526

1527

1528

1529

1531

1532

1533

1535

1536

1537

1537

1536

1536

1536

1537

1540

1543

1546

1549

1552

1553

1553

1553

1552

1551

1551

1551

1553

1554

1556

1557

1558

1557

1556

1554

1552

1552

1552

1554

1557

1561

1564

1566

1566

1565

1562

1559

1555

1552

1549

1547

1546

1546

1546

1547

1548

1549

1550

1552

1553

1554

1556

1557

1558

1559

1560

1561

1563

1564

1566

1567

1569

1571

1573

1574

1575

1575

1574

1572

1570

1569

1568

1569

1570

1572

1574

1577

1580

1582

1584

1586

1586

1586

1584

1582

1580

1578

1577

1577

1579

1582

1585

1588

1590

1591

1591

1591

1590

1588

1587

1586

1585

1585

1585

1585

1585

1584

1583

1582

1581

1580

1580

1580

1581

1583

1584

1586

1587

1588

1589

1591

1593

1596

1599

1601

1603

1604

1604

1604

1603

1602

1602

1602

1604

1605

1607

1609

1610

1611

1611

1612

1612

1613

1615

1618

1622

1625

1628

1630

1631

1630

1629

1627

1626

1625

1625

1626

1627

1629

1630

1632

1634

1637

1641

1646

1652

1659

1665

1671

1675

1677

1677

1675

1671

1665

1659

1652

1646

1639

1633

1627

1620

1612

1603

1594

1585

1577

1572

1568

1568

1569

1572

1576

1580

1584

1586

1587

1587

1586

1584

1582

1580

1578

1578

1579

1581

1582

1583

1582

1580

1577

1575

1575

1576

1578

1580

1581

1578

1571

1559

1544

1530

1522

1526

1549

1597

1671

1771

1892

2024

2153

2266

2349

2392

2388

2336

2241

2107

1946

1765

1577

1391

1218

1068

949

868

829

828

862

921

993

1069

1139

1198

1245

1282

1313

1343

1377

1416

1460

1508

1557

1602

1641

1672

1693

1705

1710

1709

1705

1701

1697

1694

1692

1692

1692

1692

1692

1692

1692

1693

1693

1693

1693

1693

1693

1694

1695

1696

1697

1697

1697

1697

1698

1699

1700

1703

1705

1708

1709

1710

1711

1710

1710

1710

1710

1710

1711

1712

1713

1714

1715

1717

1719

1721

1722

1724

1725

1726

1727

1728

1730

1731

1733

1734

1736

1737

1739

1742

1744

1746

1749

1750

1751

1751

1751

1751

1752

1753

1755

1758

1761

1764

1767

1770

1773

1775

1777

1778

1777

1776

1775

1773

1770

1768

1767

1765

1764

1763

1762

1760

1758

1756

1754

1750

1747

1743

1738

1733

1727

1722

1716

1710

1705

1699

1694

1689

1683

1677

1669

1659

1649

1637

1624

1611

1598

1586

1575

1565

1557

1549

1543

1537

1533

1529

1527

1524

1521

1518

1514

1509

1505

1501

1499

1498

1498

1500

1502

1503

1504

1505

1505

1505

1506

1507

1508

1510

1512

1514

1515

1517

1518

1520

1521

1523

1525

1527

1529

1531

1532

1533

1534

1535

1536

1538

1540

1542

1545

1547

1548

1548

1548

1547

1546

1545

1546

1547

1549

1550

1551

1552

1552

1552

1552

1553

1554

1556

1557

1557

1557

1556

1555

1554

1554

1555

1557

1559

1562

1564

1565

1565

1564

1562

1560

1558

1557

1558

1560

1563

1568

1572

1576

1578

1578

1577

1576

1574

1572

1570

1570

1570

1571

1572

1573

1573

1573

1572

1570

1569

1568

1568

1568

1570

1572

1574

1576

1578

1578

1578

1577

1575

1574

1573

1573

1573

1574

1574

1575

1575

1575

1575

1575

1576

1577

1578

1580

1582

1584

1586

1587

1588

1588

1588

1587

1586

1585

1585

1585

1585

1586

1587

1587

1588

1589

1591

1592

1594

1595

1595

1595

1595

1593

1592

1590

1588

1587

1587

1587

1589

1590

1592

1594

1596

1597

1597

1597

1598

1598

1599

1601

1603

1605

1606

1607

1607

1608

1609

1610

1613

1617

1621

1624

1627

1628

1629

1628

1627

1626

1626

1626

1626

1626

1626

1626

1625

1626

1627

1629

1634

1639

1646

1653

1659

1663

1666

1665

1663

1658

1653

1647

1642

1639

1635

1632

1629

1625

1619

1613

1605

1598

1591

1586

1582

1579

1579

1579

1581

1584

1587

1590

1591

1592

1591

1589

1587

1585

1584

1584

1585

1587

1590

1591

1592

1591

1590

1588

1587

1587

1587

1588

1587

1585

1580

1571

1560

1549

1541

1542

1558

1594

1654

1738

1842

1960

2080

2189

2274

2326

2338

2306

2233

2124

1986

1825

1652

1475

1303

1148

1017

919

860

842

860

909

978

1055

1131

1197

1249

1289

1318

1342

1367

1395

1428

1467

1510

1553

1593

1629

1658

1680

1694

1702

1705

1705

1703

1700

1696

1694

1692

1691

1691

1691

1692

1692

1693

1693

1694

1694

1694

1695

1695

1695

1696

1697

1699

1700

1702

1702

1703

1702

1701

1699

1697

1696

1696

1697

1698

1701

1703

1705

1707

1709

1710

1711

1712

1712

1712

1713

1713

1715

1717

1719

1722

1725

1727

1728

1729

1729

1728

1728

1729

1730

1732

1734

1737

1740

1743

1746

1749

1751

1752

1753

1753

1754

1754

1756

1758

1761

1764

1768

1771

1773

1774

1775

1774

1772

1770

1768

1765

1763

1761

1760

1759

1758

1758

1758

1757

1756

1755

1753

1750

1745

1740

1733

1725

1717

1710

1703

1698

1693

1688

1682

1675

1667

1656

1644

1631

1618

1606

1594

1583

1573

1563

1554

1545

1538

1531

1525

1520

1516

1512

1508

1505

1502

1500

1498

1496

1494

1493

1492

1491

1491

1491

1492

1493

1495

1497

1500

1502

1504

1505

1507

1509

1511

1514

1516

1517

1519

1521

1522

1523

1525

1526

1527

1528

1529

1530

1532

1533

1535

1537

1539

1541

1543

1546

1548

1551

1553

1554

1554

1553

1551

1549

1547

1545

1544

1544

1544

1545

1546

1548

1550

1553

1556

1559

1561

1562

1562

1560

1558

1555

1553

1552

1551

1552

1554

1556

1558

1560

1562

1563

1563

1562

1561

1560

1560

1560

1562

1564

1566

1568

1569

1570

1570

1569

1568

1566

1565

1564

1562

1561

1560

1558

1557

1557

1558

1560

1563

1566

1570

1573

1576

1579

1580

1581

1581

1580

1579

1578

1578

1579

1580

1583

1585

1587

1587

1586

1584

1582

1580

1579

1578

1579

1581

1583

1585

1586

1588

1589

1589

1588

1587

1586

1584

1584

1585

1587

1590

1594

1598

1601

1601

1601

1598

1595

1591

1588

1587

1586

1587

1589

1591

1593

1594

1594

1594

1592

1591

1590

1590

1591

1593

1595

1598

1601

1603

1604

1604

1603

1602

1602

1602

1602

1603

1605

1607

1609

1612

1615

1617

1619

1620

1620

1620

1621

1622

1624

1628

1632

1636

1640

1642

1644

1644

1644

1644

1644

1646

1649

1652

1656

1659

1661

1662

1660

1656

1652

1646

1641

1637

1633

1630

1626

1622

1616

1609

1601

1592

1583

1577

1572

1570

1569

1570

1572

1573

1574

1575

1576

1576

1578

1580

1583

1586

1589

1591

1593

1593

1592

1590

1586

1582

1579

1577

1576

1576

1577

1578

1578

1574

1567

1556

1544

1532

1524

1526

1545

1585

1650

1740

1852

1977

2103

2216

2302

2351

2355

2311

2223

2098

1945

1773

1594

1416

1249

1103

984

900

853

843

866

916

982

1054

1124

1186

1237

1278

1312

1344

1378

1415

1458

1506

1554

1601

1642

1675

1698

1711

1714

1710

1702

1693

1684

1678

1676

1676

1678

1682

1686

1690

1692

1693

1693

1692

1692

1691

1690

1690

1691

1692

1693

1693

1695

1696

1698

1701

1704

1707

1709

1710

1709

1707

1704

1701

1698

1696

1695

1696

1698

1701

1705

1709

1712

1714

1716

1715

1714

1712

1710

1708

1707

1707

1709

1711

1714

1717

1720

1723

1726

1729

1732

1735

1739

1742

1745

1748

1751

1753

1755

1757

1759

1760

1761

1763

1764

1767

1770

1773

1776

1778

1779

1779

1778

1777

1775

1772

1770

1768

1767

1765

1764

1762

1760

1758

1755

1752

1749

1746

1743

1740

1736

1731

1725

1718

1709

1700

1690

1680

1670

1661

1653

1645

1637

1629

1620

1612

1604

1597

1591

1585

1579

1572

1565

1557

1548

1540

1532

1525

1520

1516

1513

1511

1510

1509

1508

1507

1507

1506

1505

1505

1504

1504

1505

1506

1508

1510

1512

1514

1517

1520

1523

1526

1529

1530

1531

1531

1530

1529

1528

1528

1529

1531

1533

1536

1538

1541

1543

1544

1545

1545

1545

1544

1544

1543

1543

1543

1544

1546

1548

1551

1554

1557

1560

1562

1564

1564

1564

1563

1561

1559

1557

1556

1555

1555

1556

1556

1556

1556

1556

1557

1557

1559

1560

1563

1565

1566

1567

1567

1567

1566

1565

1564

1564

1563

1563

1564

1565

1566

1568

1570

1571

1572

1572

1572

1572

1571

1570

1570

1570

1570

1571

1572

1574

1575

1576

1577

1578

1578

1578

1577

1576

1576

1576

1576

1577

1579

1580

1582

1584

1586

1588

1589

1590

1591

1591

1590

1588

1587

1585

1584

1583

1584

1584

1585

1586

1586

1585

1584

1584

1584

1584

1586

1588

1591

1594

1597

1599

1600

1601

1600

1599

1597

1595

1595

1595

1596

1598

1601

1603

1604

1604

1603

1600

1597

1593

1590

1587

1586

1586

1588

1591

1596

1600

1604

1607

1609

1610

1609

1607

1605

1602

1599

1598

1598

1599

1602

1607

1613

1620

1625

1628

1630

1629

1627

1626

1625

1625

1628

1631

1635

1639

1643

1645

1647

1648

1650

1653

1656

1661

1666

1670

1673

1675

1674

1671

1666

1661

1655

1649

1645

1643

1641

1640

1633

1627

1618

1607

1596

1585

1577

1572

1569

1569

1572

1576

1580

1584

1587

1589

1590

1590

1590

1589

1589

1588

1589

1589

1589

1588

1587

1585

1582

1581

1579

1579

1579

1579

1579

1578

1574

1568

1558

1547

1536

1529

1531

1549

1587

1651

1740

1853

1981

2111

2230

2324

2380

2391

2354

2271

2148

1994

1819

1634

1449

1274

1119

991

897

841

824

842

889

954

1027

1098

1162

1215

1256

1291

1323

1358

1398

1444

1496

1549

1600

1644

1679

1702

1714

1716

1711

1703

1694

1686

1681

1679

1678

1679

1681

1683

1684

1686

1688

1691

1693

1696

1698

1699

1699

1697

1694

1690

1688

1686

1687

1690

1695

1700

1704

1707

1709

1708

1706

1704

1702

1701

1701

1701

1702

1703

1703

1704

1704

1705

1706

1708

1710

1713

1715

1717

1718

1719

1718

1718

1717

1716

1716

1716

1718

1721

1724

1727

1730

1731

1732

1733

1733

1735

1738

1742

1747

1752

1758

1763

1768

1771

1773

1774

1774

1773

1773

1772

1772

1772

1773

1774

1774

1773

1772

1770

1767

1764

1761

1758

1756

1755

1754

1752

1751

1748

1743

1738

1731

1723

1715

1708

1700

1694

1688

1681

1674

1666

1656

1644

1632

1620

1608

1598

1589

1581

1574

1567

1560

1554

1547

1541

1536

1531

1528

1525

1522

1520

1517

1515

1513

1511

1510

1509

1510

1511

1513

1515

1517

1518

1519

1518

1517

1516

1516

1516

1518

1521

1524

1527

1530

1532

1533

1533

1532

1531

1530

1530

1530

1532

1534

1536

1539

1543

1546

1548

1550

1551

1552

1553

1555

1557

1560

1562

1565

1567

1568

1568

1566

1565

1562

1559

1556

1553

1549

1546

1544

1543

1545

1547

1551

1556

1560

1564

1566

1566

1566

1565

1564

1563

1564

1565

1566

1568

1570

1571

1572

1571

1571

1569

1567

1566

1564

1564

1564

1565

1566

1567

1568

1569

1569

1569

1569

1568

1569

1569

1570

1571

1572

1572

1573

1573

1573

1573

1573

1573

1573

1574

1575

1576

1577

1579

1579

1580

1580

1580

1580

1580

1580

1580

1580

1581

1582

1583

1584

1586

1587

1588

1589

1589

1589

1590

1590

1590

1590

1590

1589

1589

1588

1588

1589

1590

1592

1594

1596

1596

1595

1594

1592

1591

1592

1593

1596

1599

1601

1603

1603

1602

1601

1600

1600

1601

1604

1607

1611

1614

1616

1616

1614

1610

1605

1600

1596

1594

1594

1596

1599

1603

1607

1609

1609

1608

1606

1604

1602

1603

1605

1608

1612

1616

1619

1621

1621

1620

1619

1618

1618

1620

1623

1628

1633

1638

1642

1646

1649

1652

1655

1659

1662

1666

1669

1671

1670

1668

1664

1658

1654

1650

1647

1646

1646

1645

1643

1639

1632

1622

1611

1599

1588

1579

1572

1569

1570

1572

1576

1580

1583

1585

1586

1586

1587

1587

1587

1588

1589

1590

1590

1589

1589

1588

1587

1588

1588

1589

1591

1592

1592

1590

1586

1579

1569

1556

1543

1532

1528

1537

1564

1615

1693

1795

1917

2048

2175

2285

2364

2400

2389

2328

2223

2079

1907

1718

1525

1339

1171

1029

921

852

823

830

868

928

999

1071

1137

1192

1237

1274

1308

1342

1381

1426

1475

1527

1578

1624

1661

1689

1707

1714

1715

1709

1701

1693

1686

1682

1681

1681

1683

1686

1688

1690

1690

1690

1690

1690

1689

1689

1689

1689

1689

1689

1689

1689

1690

1691

1692

1694

1696

1698

1700

1703

1704

1705

1705

1704

1703

1701

1701

1701

1702

1704

1707

1709

1711

1713

1714

1714

1714

1713

1712

1711

1709

1708

1707

1707

1708

1712

1716

1722

1728

1733

1738

1742

1744

1745

1746

1746

1746

1746

1747

1748

1749

1751

1753

1756

1758

1761

1764

1767

1770

1773

1775

1777

1779

1779

1778

1776

1773

1770

1767

1765

1763

1761

1760

1758

1757

1755

1752

1749

1744

1739

1733

1727

1720

1715

1709

1704

1699

1694

1687

1679

1670

1659

1647

1635

1622

1610

1598

1587

1578

1569

1562

1556

1550

1546

1541

1537

1533

1528

1524

1520

1517

1513

1510

1507

1504

1501

1499

1498

1499

1501

1503

1506

1509

1512

1514

1516

1517

1518

1519

1519

1520

1521

1522

1523

1525

1527

1529

1531

1533

1533

1534

1534

1534

1534

1534

1534

1534

1535

1535

1536

1538

1540

1542

1545

1548

1551

1553

1554

1555

1555

1555

1555

1555

1555

1555

1555

1555

1556

1557

1559

1560

1561

1562

1563

1563

1563

1563

1562

1562

1561

1559

1558

1556

1555

1555

1556

1557

1560

1563

1566

1569

1571

1574

1575

1575

1575

1574

1572

1571

1569

1567

1566

1566

1566

1567

1568

1570

1572

1575

1578

1580

1582

1582

1581

1579

1576

1572

1569

1568

1567

1568

1571

1574

1576

1579

1581

1581

1581

1580

1579

1578

1577

1578

1580

1583

1587

1590

1593

1594

1594

1593

1591

1589

1587

1585

1584

1583

1583

1582

1582

1583

1584

1587

1589

1592

1594

1596

1597

1597

1597

1596

1595

1595

1595

1595

1597

1598

1600

1601

1601

1600

1599

1597

1595

1594

1594

1595

1597

1599

1601

1602

1602

1603

1604

1605

1606

1607

1608

1609

1609

1608

1608

1608

1610

1612

1615

1618

1622

1625

1627

1629

1630

1630

1630

1629

1629

1629

1629

1631

1633

1637

1641

1646

1652

1657

1662

1667

1671

1673

1674

1672

1668

1662

1656

1651

1646

1642

1639

1636

1632

1627

1619

1609

1599

1589

1581

1576

1573

1573

1575

1578

1581

1585

1589

1593

1596

1599

1600

1601

1601

1600

1598

1597

1595

1594

1592

1591

1590

1589

1588

1587

1587

1587

1586

1584

1581

1575

1567

1559

1551

1548

1554

1576

1618

1684

1773

1880

1997

2113

2214

2288

2325

2320

2271

2182

2059

1909

1742

1566

1391

1226

1082

966

885

844

841

872

929

1001

1079

1152

1216

1267

1307

1339

1367

1396

1428

1466

1508

1552

1596

1637

1671

1697

1714

1722

1723

1719

1712

1703

1695

1689

1686

1685

1687

1690

1694

1699

1702

1705

1706

1706

1705

1704

1703

1703

1704

1706

1708

1709

1710

1710

1709

1707

1705

1703

1701

1701

1702

1704

1707

1709

1711

1712

1712

1711

1709

1708

1707

1708

1709

1710

1712

1713

1715

1716

1718

1720

1722

1725

1728

1730

1733

1735

1737

1738

1739

1739

1740

1740

1741

1743

1745

1748

1751

1754

1758

1761

1764

1766

1769

1771

1773

1774

1774

1773

1771

1769

1767

1766

1767

1768

1771

1773

1775

1776

1776

1774

1771

1767

1762

1758

1753

1749

1745

1742

1738

1734

1730

1724

1717

1710

1701

1693

1686

1678

1671

1664

1655

1645

1633

1620

1606

1591

1578

1566

1556

1549

1543

1540

1538

1537

1535

1533

1530

1526

1520

1514

1508

1501

1496

1492

1490

1489

1489

1489

1491

1492

1494

1495

1497

1498

1498

1498

1498

1499

1500

1502

1506

1510

1514

1518

1522

1525

1527

1529

1530

1531

1531

1532

1533

1534

1535

1536

1538

1540

1541

1543

1544

1545

1546

1546

1547

1548

1549

1550

1552

1553

1554

1554

1554

1554

1553

1552

1551

1550

1550

1551

1553

1555

1557

1558

1559

1558

1558

1558

1558

1560

1561

1563

1564

1565

1564

1562

1560

1558

1557

1556

1556

1557

1557

1557

1557

1557

1557

1559

1561

1564

1567

1570

1572

1574

1573

1572

1569

1566

1563

1560

1559

1559

1560

1563

1565

1566

1567

1566

1564

1563

1561

1561

1561

1563

1565

1568

1570

1572

1574

1574

1574

1574

1573

1573

1572

1573

1574

1575

1576

1578

1578

1579

1580

1581

1582

1584

1586

1588

1590

1591

1590

1590

1589

1589

1589

1591

1593

1594

1596

1597

1597

1597

1597

1598

1599

1600

1602

1604

1605

1606

1606

1604

1602

1599

1596

1594

1593

1595

1598

1603

1608

1612

1616

1618

1619

1619

1618

1617

1617

1617

1618

1620

1621

1621

1621

1620

1618

1617

1616

1615

1616

1618

1621

1625

1629

1633

1636

1639

1642

1645

1649

1653

1658

1662

1666

1667

1666

1663

1659

1653

1648

1642

1637

1632

1626

1619

1611

1603

1595

1588

1583

1580

1580

1583

1587

1592

1596

1600

1602

1603

1601

1598

1594

1590

1586

1584

1583

1584

1586

1589

1591

1592

1592

1591

1589

1586

1583

1581

1578

1575

1570

1563

1553

1542

1531

1524

1526

1543

1582

1646

1735

1846

1969

2093

2201

2282

2323

2318

2267

2173

2043

1889

1718

1543

1373

1216

1080

972

898

858

854

879

927

989

1057

1121

1179

1227

1267

1302

1337

1373

1415

1460

1509

1559

1605

1645

1677

1699

1712

1717

1716

1712

1707

1702

1699

1698

1698

1699

1700

1701

1701

1701

1700

1699

1698

1698

1697

1697

1697

1697

1697

1697

1696

1695

1695

1695

1695

1696

1698

1699

1701

1703

1704

1706

1707

1708

1709

1710

1710

1710

1710

1710

1709

1710

1710

1712

1714

1716

1718

1720

1722

1724

1725

1726

1727

1728

1729

1731

1732

1733

1733

1733

1733

1732

1732

1731

1732

1733

1735

1738

1742

1746

1749

1753

1757

1761

1764

1766

1768

1769

1770

1770

1770

1770

1770

1770

1771

1772

1773

1774

1774

1773

1772

1770

1767

1763

1759

1754

1748

1741

1735

1728

1721

1715

1709

1704

1700

1695

1690

1684

1677

1667

1656

1643

1630

1618

1606

1597

1590

1583

1578

1573

1567

1561

1553

1546

1538

1530

1522

1516

1511

1508

1506

1505

1506

1507

1508

1509

1510

1510

1510

1510

1511

1511

1512

1514

1515

1517

1518

1520

1521

1521

1521

1520

1518

1517

1517

1519

1521

1526

1531

1536

1541

1544

1546

1547

1546

1545

1544

1543

1543

1543

1544

1546

1547

1550

1552

1553

1554

1555

1555

1555

1555

1556

1556

1557

1557

1557

1557

1557

1557

1557

1558

1559

1560

1561

1562

1562

1561

1561

1561

1561

1561

1561

1561

1561

1560

1560

1561

1562

1564

1566

1566

1566

1566

1564

1562

1562

1562

1564

1566

1570

1573

1575

1577

1576

1575

1572

1569

1566

1564

1563

1562

1563

1564

1566

1568

1570

1571

1572

1572

1572

1572

1573

1574

1576

1579

1582

1585

1587

1588

1587

1586

1584

1582

1580

1578

1578

1579

1580

1582

1583

1584

1584

1584

1585

1586

1588

1592

1595

1599

1601

1602

1601

1598

1594

1590

1586

1582

1580

1579

1579

1581

1584

1588

1591

1594

1596

1597

1597

1597

1596

1596

1596

1597

1598

1599

1600

1601

1601

1602

1602

1602

1602

1602

1603

1604

1604

1606

1607

1608

1610

1612

1615

1617

1620

1623

1625

1627

1627

1626

1624

1622

1620

1619

1620

1622

1625

1629

1633

1637

1642

1646

1651

1655

1659

1663

1666

1667

1667

1666

1663

1660

1656

1653

1649

1646

1644

1640

1636

1630

1623

1614

1604

1594

1585

1578

1574

1573

1574

1577

1581

1585

1587

1588

1588

1587

1587

1587

1588

1589

1591

1593

1595

1596

1596

1595

1593

1591

1588

1585

1583

1581

1580

1578

1576

1571

1564

1554

1543

1532

1525

1526

1543

1579

1639

1723

1829

1950

2075

2190

2283

2341

2356

2324

2246

2128

1978

1807

1625

1443

1272

1119

994

902

849

832

851

896

959

1030

1099

1161

1212

1253

1287

1320

1354

1394

1439

1489

1540

1589

1632

1668

1694

1710

1718

1719

1715

1710

1704

1699

1696

1694

1693

1693

1694

1695

1696

1699

1702

1705

1707

1709

1709

1708

1706

1704

1702

1700

1700

1700

1701

1702

1703

1705

1705

1706

1706

1707

1708

1709

1710

1712

1715

1717

1719

1719

1718

1717

1715

1712

1711

1711

1712

1714

1716

1719

1720

1721

1721

1721

1721

1721

1722

1724

1726

1728

1731

1733

1735

1737

1738

1738

1739

1741

1743

1746

1750

1753

1757

1759

1761

1763

1764

1766

1768

1771

1774

1777

1779

1780

1779

1777

1775

1772

1768

1765

1762

1760

1758

1756

1754

1752

1749

1745

1740

1735

1729

1724

1719

1714

1710

1705

1701

1695

1688

1680

1671

1660

1649

1636

1624

1611

1599

1587

1578

1569

1563

1559

1555

1552

1549

1544

1539

1532

1524

1517

1510

1503

1499

1496

1495

1495

1497

1500

1502

1504

1505

1505

1504

1503

1502

1502

1503

1505

1508

1511

1515

1519

1523

1527

1529

1531

1532

1532

1531

1529

1528

1527

1527

1528

1530

1533

1536

1540

1544

1548

1551

1553

1553

1553

1552

1550

1549

1548

1547

1548

1549

1550

1551

1552

1551

1550

1549

1547

1546

1546

1546

1548

1550

1552

1555

1557

1559

1561

1563

1564

1565

1565

1566

1566

1565

1564

1563

1562

1560

1560

1559

1560

1562

1563

1565

1567

1568

1568

1568

1567

1566

1564

1563

1561

1560

1560

1561

1563

1566

1568

1571

1572

1572

1572

1571

1571

1571

1573

1575

1577

1580

1581

1582

1582

1581

1580

1578

1577

1577

1576

1577

1578

1579

1580

1581

1582

1582

1582

1581

1580

1579

1578

1578

1578

1579

1580

1581

1582

1584

1585

1586

1588

1589

1591

1592

1593

1594

1595

1596

1598

1600

1602

1603

1604

1605

1605

1606

1606

1605

1605

1605

1604

1603

1602

1601

1600

1599

1598

1597

1596

1595

1595

1595

1596

1597

1599

1600

1601

1602

1602

1602

1603

1603

1605

1607

1610

1613

1617

1621

1625

1628

1632

1634

1636

1637

1637

1637

1636

1636

1636

1637

1638

1639

1640

1641

1642

1644

1646

1648

1651

1654

1658

1661

1664

1665

1666

1664

1661

1658

1654

1650

1648

1646

1645

1643

1639

1633

1625

1614

1602

1591

1582

1575

1572

1573

1575

1579

1583

1586

1588

1589

1589

1588

1587

1586

1585

1585

1585

1585

1585

1585

1584

1582

1581

1581

1581

1582

1583

1585

1585

1584

1580

1573

1563

1551

1539

1531

1530

1543

1575

1630

1711

1816

1938

2067

2187

2285

2348

2366

2336

2258

2138

1986

1812

1628

1445

1271

1117

991

897

841

823

839

883

946

1019

1091

1157

1213

1259

1297

1331

1365

1403

1446

1494

1543

1590

1632

1666

1690

1704

1709

1708

1702

1696

1690

1686

1684

1683

1685

1687

1689

1692

1695

1698

1700

1701

1701

1700

1698

1696

1694

1693

1694

1695

1698

1702

1706

1710

1713

1715

1716

1717

1716

1715

1713

1712

1712

1711

1712

1712

1712

1713

1713

1713

1713

1713

1714

1715

1717

1719

1721

1723

1724

1726

1726

1726

1725

1724

1723

1721

1720

1720

1720

1722

1724

1727

1731

1736

1741

1746

1751

1755

1758

1760

1761

1761

1761

1761

1762

1763

1765

1766

1767

1767

1767

1767

1767

1767

1767

1767

1767

1767

1766

1765

1763

1761

1758

1754

1750

1745

1739

1734

1729

1723

1718

1713

1707

1700

1693

1685

1677

1669

1662

1654

1647

1639

1631

1623

1614

1605

1595

1586

1577

1568

1559

1551

1544

1537

1531

1525

1519

1513

1508

1504

1502

1501

1503

1506

1510

1514

1518

1521

1523

1523

1521

1520

1518

1516

1515

1516

1517

1518

1520

1522

1524

1525

1525

1525

1524

1524

1524

1525

1526

1528

1531

1534

1537

1541

1545

1550

1554

1558

1561

1562

1563

1561

1559

1556

1553

1551

1549

1548

1548

1549

1550

1552

1554

1556

1558

1559

1560

1561

1562

1563

1563

1563

1562

1561

1559

1557

1555

1553

1553

1553

1554

1556

1559

1562

1563

1564

1564

1563

1562

1560

1558

1556

1556

1557

1559

1561

1564

1567

1570

1572

1573

1574

1575

1575

1575

1576

1577

1577

1578

1578

1579

1580

1581

1582

1583

1584

1584

1584

1583

1582

1581

1580

1579

1579

1580

1582

1584

1586

1589

1592

1594

1595

1595

1594

1591

1588

1585

1583

1581

1581

1581

1583

1586

1589

1592

1594

1596

1597

1597

1596

1595

1592

1590

1588

1587

1587

1588

1589

1590

1592

1593

1593

1594

1594

1594

1594

1595

1595

1597

1598

1599

1600

1601

1601

1601

1601

1601

1601

1602

1603

1604

1605

1606

1606

1606

1605

1606

1607

1608

1610

1611

1613

1613

1614

1613

1613

1613

1614

1615

1618

1621

1624

1628

1631

1634

1635

1636

1637

1637

1637

1637

1638

1639

1641

1642

1643

1644

1646

1648

1652

1658

1664

1669

1674

1676

1676

1673

1669

1663

1657

1651

1646

1641

1635

1629

1621

1612

1603

1594

1586

1580

1576

1575

1575

1577

1579

1582

1584

1586

1587

1589

1590

1592

1594

1596

1598

1598

1598

1596

1592

1587

1582

1578

1574

1572

1571

1572

1573

1574

1575

1573

1569

1561

1550

1538

1530

1530

1545

1581

1642

1729

1838

1962

2089

2205

2296

2351

2361

2324

2241

2118

1964

1788

1602

1417

1242

1089

966

878

831

822

849

903

973

1050

1122

1185

1236

1275

1306

1335

1366

1402

1443

1490

1538

1585

1627

1661

1686

1701

1709

1709

1706

1701

1696

1692

1690

1689

1689

1690

1690

1690

1689

1688

1688

1689

1690

1692

1694

1696

1697

1696

1695

1694

1692

1691

1691

1691

1692

1694

1697

1700

1703

1705

1707

1708

1708

1708

1706

1706

1706

1707

1710

1712

1715

1718

1719

1719

1719

1719

1718

1718

1718

1718

1718

1719

1720

1722

1724

1727

1729

1732

1734

1735

1736

1736

1737

1739

1741

1744

1748

1752

1755

1759

1762

1765

1767

1768

1768

1768

1768

1768

1768

1769

1771

1773

1775

1776

1777

1776

1775

1772

1769

1765

1760

1756

1753

1751

1750

1750

1750

1748

1745

1740

1732

1723

1712

1702

1693

1685

1677

1671

1664

1656

1648

1638

1627

1615

1603

1591

1580

1570

1560

1552

1544

1536

1529

1521

1514

1508

1503

1499

1497

1497

1498

1500

1502

1503

1504

1505

1506

1507

1508

1510

1511

1513

1513

1514

1513

1513

1512

1512

1512

1511

1512

1512

1514

1515

1518

1520

1523

1526

1529

1531

1533

1536

1538

1541

1543

1544

1545

1545

1545

1544

1543

1543

1544

1545

1548

1551

1555

1559

1562

1565

1566

1565

1563

1560

1557

1555

1553

1553

1554

1556

1558

1560

1562

1562

1562

1561

1560

1558

1557

1556

1555

1554

1554

1555

1557

1559

1562

1566

1569

1571

1572

1572

1571

1570

1568

1566

1565

1564

1564

1566

1568

1570

1573

1575

1575

1575

1574

1572

1571

1570

1570

1571

1572

1573

1575

1576

1577

1578

1579

1581

1583

1585

1587

1589

1590

1592

1592

1591

1589

1587

1584

1582

1581

1580

1580

1581

1582

1583

1584

1585

1586

1587

1588

1590

1592

1593

1595

1595

1596

1596

1597

1597

1598

1599

1600

1601

1601

1601

1600

1598

1597

1595

1593

1592

1592

1593

1594

1597

1599

1602

1605

1606

1607

1606

1605

1604

1603

1602

1601

1601

1602

1603

1604

1606

1608

1609

1610

1609

1608

1606

1605

1604

1604

1606

1610

1613

1617

1621

1624

1626

1627

1628

1628

1628

1627

1626

1625

1624

1624

1625

1627

1629

1631

1633

1635

1636

1637

1639

1642

1646

1651

1655

1659

1662

1663

1663

1661

1658

1655

1652

1649

1646

1643

1639

1634

1628

1620

1611

1602

1592

1584

1577

1573

1571

1570

1571

1572

1574

1575

1577

1578

1580

1582

1584

1586

1588

1589

1590

1591

1592

1592

1591

1591

1589

1588

1586

1584

1583

1583

1583

1582

1579

1575

1569

1561

1554

1550

1556

1577

1617

1680

1767

1873

1990

2108

2213

2293

2337

2339

2297

2212

2091

1942

1772

1592

1412

1242

1093

974

893

853

854

889

950

1025

1103

1175

1235

1280

1313

1339

1360

1383

1410

1442

1479

1520

1562

1603

1640

1670

1693

1708

1715

1716

1713

1708

1702

1696

1692

1689

1687

1686

1686

1687

1689

1690

1692

1694

1696

1698

1699

1699

1699

1700

1700

1700

1701

1703

1705

1707

1709

1710

1709

1707

1705

1702

1699

1697

1698

1699

1702

1706

1710

1713

1715

1716

1717

1717

1717

1717

1718

1720

1722

1725

1727

1729

1730

1731

1730

1728

1727

1726

1726

1728

1731

1735

1740

1744

1747

1749

1751

1752

1754

1756

1758

1762

1766

1770

1773

1775

1776

1775

1774

1772

1770

1769

1769

1771

1773

1775

1776

1777

1776

1774

1771

1767

1763

1760

1757

1754

1750

1747

1742

1737

1731

1724

1716

1708

1699

1691

1683

1675

1668

1662

1655

1647

1638

1628

1617

1605

1593

1582

1573

1564

1557

1550

1543

1537

1530

1524

1519

1514

1509

1506

1503

1500

1498

1497

1497

1496

1497

1497

1497

1497

1496

1496

1496

1497

1498

1499

1501

1503

1504

1506

1508

1510

1511

1513

1514

1516

1517

1518

1519

1521

1523

1526

1530

1533

1537

1540

1542

1543

1543

1543

1541

1540

1539

1539

1540

1543

1546

1550

1552

1554

1554

1554

1553

1552

1552

1553

1554

1556

1556

1556

1555

1554

1551

1549

1547

1546

1545

1546

1546

1547

1548

1549

1551

1552

1553

1554

1555

1557

1559

1561

1563

1564

1564

1564

1563

1561

1561

1562

1563

1566

1569

1571

1573

1574

1574

1572

1571

1569

1568

1567

1567

1568

1569

1570

1571

1572

1573

1573

1573

1573

1573

1573

1574

1574

1574

1575

1575

1575

1575

1576

1578

1580

1582

1583

1585

1586

1587

1587

1588

1590

1592

1593

1595

1595

1594

1593

1592

1591

1590

1590

1591

1592

1592

1592

1592

1592

1591

1590

1589

1589

1589

1589

1589

1590

1591

1593

1595

1596

1598

1600

1602

1603

1605

1606

1607

1608

1607

1606

1606

1606

1607

1609

1613

1616

1619

1620

1620

1619

1617

1616

1616

1617

1621

1626

1631

1636

1640

1642

1642

1642

1642

1642

1644

1647

1650

1654

1657

1658

1658

1655

1652

1647

1643

1639

1634

1630

1624

1617

1609

1599

1589

1580

1573

1569

1568

1569

1571

1575

1579

1582

1585

1588

1591

1593

1594

1595

1594

1593

1592

1592

1591

1591

1592

1592

1592

1592

1591

1589

1588

1586

1585

1583

1581

1578

1573

1566

1557

1548

1542

1545

1561

1597

1657

1741

1845

1962

2079

2183

2260

2301

2298

2250

2162

2038

1888

1722

1548

1377

1217

1077

965

887

847

843

873

929

999

1075

1148

1210

1261

1300

1331

1359

1389

1422

1461

1504

1549

1593

1633

1667

1691

1707

1714

1715

1712

1706

1701

1696

1694

1694

1696

1699

1702

1705

1707

1707

1707

1705

1702

1700

1699

1698

1699

1700

1702

1703

1704

1705

1704

1703

1702

1702

1702

1702

1704

1707

1709

1712

1713

1714

1713

1710

1708

1705

1704

1704

1706

1709

1712

1716

1719

1722

1724

1725

1725

1725

1725

1724

1725

1725

1727

1729

1731

1733

1735

1737

1738

1739

1740

1742

1745

1749

1752

1756

1759

1761

1762

1762

1762

1762

1762

1763

1764

1765

1767

1768

1769

1771

1773

1774

1776

1776

1776

1775

1774

1771

1767

1763

1758

1752

1745

1738

1731

1725

1719

1714

1709

1705

1701

1697

1692

1686

1679

1671

1661

1650

1639

1626

1614

1603

1593

1584

1577

1570

1565

1560

1555

1549

1543

1536

1529

1521

1514

1508

1503

1499

1497

1496

1496

1496

1497

1498

1500

1503

1506

1510

1514

1517

1519

1519

1518

1515

1513

1510

1509

1510

1512

1515

1518

1522

1525

1528

1530

1531

1532

1532

1532

1532

1532

1532

1533

1533

1535

1536

1537

1538

1540

1542

1544

1547

1550

1553

1554

1555

1553

1551

1548

1545

1543

1543

1544

1547

1551

1555

1559

1561

1562

1562

1562

1560

1559

1559

1558

1559

1559

1559

1559

1559

1559

1559

1560

1561

1563

1565

1567

1568

1569

1570

1570

1570

1571

1572

1574

1575

1577

1577

1577

1575

1572

1569

1565

1562

1559

1557

1556

1556

1558

1560

1563

1565

1568

1570

1572

1574

1575

1577

1578

1579

1580

1580

1581

1581

1582

1584

1585

1586

1587

1586

1584

1582

1580

1578

1577

1577

1579

1581

1585

1588

1591

1593

1594

1595

1594

1592

1590

1588

1586

1585

1584

1585

1586

1588

1590

1591

1592

1593

1593

1593

1594

1594

1595

1596

1597

1598

1598

1598

1598

1598

1597

1596

1595

1594

1594

1594

1595

1595

1596

1597

1599

1603

1607

1613

1621

1628

1635

1641

1644

1644

1642

1639

1635

1632

1630

1629

1630

1631

1632

1634

1636

1638

1640

1642

1646

1650

1655

1660

1665

1668

1670

1670

1667

1663

1657

1651

1644

1639

1634

1630

1625

1619

1612

1603

1593

1584

1575

1568

1564

1562

1561

1563

1565

1568

1571

1574

1577

1579

1581

1583

1586

1587

1587

1587

1587

1585

1584

1582

1580

1580

1580

1581

1583

1585

1585

1582

1575

1564

1549

1533

1520

1514

1523

1553

1610

1695

1806

1936

2073

2204

2313

2387

2415

2393

2321

2205

2054

1877

1688

1496

1313

1149

1013

911

847

823

835

876

938

1010

1084

1152

1209

1255

1292

1325

1356

1391

1431

1477

1526

1575

1620

1657

1685

1701

1707

1704

1696

1686

1677

1670

1667

1667

1670

1674

1679

1684

1686

1688

1688

1688

1688

1688

1689

1691

1693

1695

1696

1697

1698

1698

1698

1699

1701

1704

1707

1710

1714

1716

1718

1719

1719

1718

1717

1715

1713

1712

1711

1712

1713

1714

1715

1715

1714

1711

1709

1707

1706

1706

1708

1712

1716

1722

1727

1731

1735

1737

1739

1739

1739

1740

1741

1743

1746

1751

1756

1762

1766

1769

1771

1771

1769

1767

1766

1765

1765

1767

1770

1772

1775

1777

1778

1778

1777

1775

1774

1773

1773

1773

1773

1774

1773

1771

1768

1763

1757

1751

1745

1738

1732

1725

1718

1711

1702

1693

1683

1672

1660

1649

1637

1626

1616

1608

1600

1594

1588

1583

1576

1569

1561

1553

1545

1538

1532

1527

1523

1521

1520

1519

1520

1520

1521

1521

1520

1517

1514

1509

1505

1502

1501

1502

1504

1507

1511

1515

1517

1518

1519

1518

1518

1518

1519

1520

1522

1523

1524

1525

1526

1526

1527

1528

1530

1533

1536

1539

1543

1545

1546

1547

1547

1547

1547

1548

1549

1551

1553

1555

1556

1557

1557

1556

1554

1551

1548

1545

1542

1542

1543

1546

1551

1557

1563

1569

1572

1574

1574

1573

1571

1569

1568

1566

1565

1565

1564

1564

1564

1564

1565

1566

1568

1569

1571

1573

1574

1575

1575

1574

1572

1570

1567

1565

1563

1562

1562

1562

1563

1564

1565

1567

1568

1569

1570

1571

1572

1573

1574

1574

1575

1575

1576

1578

1579

1581

1582

1583

1583

1584

1584

1584

1583

1583

1583

1583

1583

1584

1586

1588

1591

1593

1594

1594

1593

1591

1589

1588

1587

1587

1588

1589

1591

1593

1594

1596

1597

1596

1595

1592

1589

1585

1582

1580

1579

1581

1584

1588

1592

1596

1599

1601

1602

1603

1602

1602

1602

1602

1602

1602

1602

1602

1602

1602

1603

1605

1608

1612

1617

1621

1625

1627

1627

1626

1625

1622

1621

1620

1621

1622

1624

1628

1631

1636

1641

1647

1654

1662

1668

1674

1678

1679

1678

1675

1671

1666

1661

1656

1653

1650

1647

1644

1639

1632

1622

1611

1598

1586

1575

1568

1563

1563

1564

1568

1571

1574

1576

1576

1575

1573

1571

1569

1568

1568

1570

1572

1574

1575

1576

1576

1575

1574

1573

1573

1574

1575

1575

1573

1566

1554

1538

1518

1499

1485

1482

1496

1535

1602

1699

1822

1964

2114

2256

2375

2458

2492

2474

2403

2284

2125

1937

1732

1524

1324

1144

994

883

814

789

803

847

911

984

1055

1117

1168

1208

1240

1271

1304

1344

1391

1445

1502

1559

1611

1654

1686

1706

1714

1713

1706

1697

1686

1678

1673

1670

1671

1673

1676

1680

1684

1688

1692

1695

1697

1699

1699

1699

1699

1698

1698

1698

1698

1699

1700

1701

1701

1702

1702

1703

1703

1703

1702

1701

1699

1698

1697

1696

1697

1698

1700

1703

1707

1711

1714

1717

1718

1719

1720

1720

1720

1720

1721

1723

1725

1728

1731

1734

1738

1741

1744

1747

1749

1751

1753

1754

1756

1757

1759

1761

1763

1764

1766

1767

1768

1770

1772

1775

1779

1782

1785

1788

1789

1789

1788

1787

1785

1783

1781

1779

1777

1775

1774

1772

1770

1768

1765

1762

1757

1752

1747

1740

1734

1726

1719

1710

1702

1692

1683

1674

1665

1656

1646

1635

1624

1613

1601

1591

1583

1576

1570

1566

1561

1555

1548

1539

1529

1518

1509

1501

1496

1495

1496

1499

1503

1508

1511

1513

1512

1509

1505

1501

1497

1495

1495

1496

1500

1505

1510

1515

1518

1521

1521

1521

1519

1518

1517

1517

1518

1520

1523

1527

1531

1534

1536

1538

1538

1539

1539

1538

1538

1537

1536

1535

1535

1535

1536

1538

1540

1542

1543

1543

1543

1542

1542

1542

1542

1542

1543

1544

1545

1546

1547

1549

1551

1553

1554

1555

1556

1556

1555

1555

1554

1554

1555

1556

1557

1559

1561

1562

1563

1563

1562

1560

1558

1556

1555

1554

1554

1555

1556

1556

1557

1557

1557

1558

1559

1560

1562

1564

1566

1567

1568

1569

1569

1569

1570

1570

1571

1572

1573

1574

1574

1576

1577

1578

1579

1580

1580

1579

1579

1578

1577

1576

1575

1574

1573

1572

1572

1573

1574

1576

1577

1579

1580

1582

1583

1584

1586

1587

1588

1588

1587

1586

1584

1583

1582

1583

1584

1587

1590

1593

1596

1598

1599

1600

1600

1599

1598

1597

1595

1594

1593

1592

1593

1595

1597

1600

1604

1607

1610

1612

1614

1616

1619

1622

1625

1630

1634

1638

1640

1641

1640

1637

1633

1630

1627

1626

1628

1631

1636

1641

1645

1648

1650

1652

1655

1658

1662

1666

1670

1673

1674

1673

1670

1665

1660

1656

1652

1649

1647

1645

1641

1636

1628

1619

1609

1598

1589

1582

1578

1576

1578

1581

1585

1589

1592

1595

1596

1596

1596

1595

1594

1593

1593

1592

1592

1592

1591

1590

1589

1587

1585

1583

1582

1581

1581

1581

1581

1578

1573

1566

1558

1551

1549

1557

1580

1622

1687

1774

1878

1994

2109

2213

2294

2342

2351

2319

2247

2140

2002

1841

1666

1487

1313

1155

1025

930

875

863

887

939

1009

1083

1153

1211

1256

1288

1311

1330

1349

1371

1399

1432

1471

1513

1557

1601

1641

1676

1702

1719

1726

1725

1718

1708

1697

1688

1681

1678

1678

1681

1686

1692

1698

1705

1710

1715

1717

1718

1717

1716

1714

1712

1710

1709

1709

1709

1709

1710

1711

1712

1713

1714

1715

1715

1714

1713

1712

1712

1712

1713

1714

1717

1720

1723

1726

1727

1728

1727

1725

1723

1721

1720

1722

1725

1729

1734

1738

1741

1743

1744

1743

1743

1742

1742

1744

1746

1750

1755

1760

1765

1770

1775

1779

1782

1785

1787

1788

1788

1788

1787

1786

1784

1783

1782

1783

1784

1785

1787

1789

1790

1789

1787

1783

1779

1774

1770

1766

1762

1758

1754

1749

1744

1738

1731

1723

1714

1704

1694

1683

1673

1662

1653

1643

1634

1625

1615

1605

1594

1583

1572

1561

1550

1541

1532

1525

1519

1513

1508

1503

1499

1495

1491

1487

1484

1482

1482

1482

1484

1486

1489

1491

1493

1494

1495

1496

1498

1500

1503

1505

1508

1510

1512

1513

1513

1513

1513

1514

1516

1519

1523

1527

1531

1534

1536

1537

1537

1536

1534

1533

1533

1533

1534

1536

1537

1538

1539

1540

1541

1542

1543

1545

1547

1549

1551

1553

1554

1555

1557

1559

1561

1563

1565

1567

1568

1568

1568

1567

1565

1563

1560

1558

1556

1556

1556

1557

1557

1558

1558

1556

1554

1552

1550

1548

1547

1546

1546

1547

1548

1550

1552

1556

1559

1563

1567

1570

1572

1573

1573

1572

1571

1568

1566

1565

1564

1564

1565

1568

1571

1574

1577

1579

1581

1581

1582

1581

1581

1580

1578

1577

1576

1576

1576

1576

1576

1576

1576

1576

1575

1575

1575

1576

1578

1582

1585

1589

1592

1594

1595

1594

1593

1592

1592

1592

1594

1597

1601

1605

1609

1612

1615

1618

1619

1619

1620

1620

1621

1623

1625

1628

1631

1635

1639

1642

1645

1647

1649

1649

1647

1645

1641

1638

1635

1633

1632

1632

1632

1631

1628

1622

1613

1603

1591

1581

1572

1565

1562

1560

1561

1562

1564

1567

1569

1572

1574

1577

1579

1581

1584

1586

1587

1589

1589

1589

1589

1588

1587

1585

1582

1579

1576

1573

1571

1569

1568

1567

1565

1561

1554

1545

1535

1528

1529

1544

1580

1639

1724

1829

1946

2065

2171

2253

2298

2302

2262

2182

2067

1925

1765

1596

1426

1266

1123

1006

922

875

866

890

941

1009

1081

1150

1208

1253

1286

1309

1329

1349

1374

1405

1442

1484

1529

1573

1614

1650

1678

1697

1708

1712

1710

1705

1699

1694

1691

1691

1692

1693

1695

1696

1697

1696

1696

1695

1696

1697

1698

1701

1704

1707

1711

1715

1719

1721

1723

1722

1719

1715

1711

1706

1702

1700

1699

1700

1702

1706

1709

1713

1715

1716

1716

1715

1714

1713

1712

1712

1712

1712

1713

1712

1712

1712

1712

1713

1715

1718

1721

1724

1728

1732

1736

1741

1746

1752

1756

1759

1760

1760

1759

1759

1761

1765

1772

1781

1790

1797

1801

1802

1799

1793

1786

1779

1773

1770

1770

1771

1773

1775

1774

1772

1767

1761

1754

1748

1743

1739

1737

1736

1735

1733

1729

1722

1714

1704

1693

1681

1669

1658

1648

1640

1633

1627

1621

1615

1607

1598

1585

1571

1556

1540

1526

1514

1506

1500

1497

1496

1495

1495

1494

1492

1491

1489

1487

1486

1486

1486

1487

1487

1488

1488

1487

1487

1486

1485

1486

1487

1489

1491

1494

1496

1498

1500

1502

1505

1508

1511

1516

1520

1524

1528

1532

1534

1537

1538

1538

1538

1537

1535

1534

1532

1532

1531

1532

1533

1535

1537

1540

1543

1546

1549

1553

1556

1557

1557

1556

1554

1551

1549

1547

1546

1547

1549

1551

1555

1557

1560

1561

1560

1559

1556

1554

1552

1551

1553

1556

1561

1566

1570

1572

1571

1568

1564

1559

1555

1552

1551

1553

1556

1561

1566

1571

1575

1578

1580

1581

1579

1577

1573

1568

1564

1560

1557

1556

1555

1557

1560

1564

1570

1576

1581

1586

1589

1589

1587

1584

1580

1577

1575

1575

1577

1580

1584

1587

1589

1590

1589

1586

1582

1578

1574

1572

1571

1573

1576

1581

1587

1592

1597

1599

1600

1598

1596

1592

1589

1587

1585

1586

1588

1591

1596

1600

1604

1606

1608

1608

1607

1607

1608

1611

1614

1618

1622

1625

1626

1625

1622

1619

1616

1614

1615

1618

1623

1630

1636

1642

1646

1648

1649

1648

1648

1649

1652

1657

1662

1668

1673

1675

1676

1673

1670

1665

1660

1655

1650

1645

1639

1632

1625

1617

1608

1600

1592

1586

1581

1578

1576

1575

1575

1575

1575

1574

1572

1571

1569

1569

1570

1572

1581

1586

1589

1591

1590

1588

1584

1580

1577

1576

1577

1578

1580

1580

1577

1570

1558

1543

1527

1514

1508

1515

1542

1592

1668

1768

1887

2016

2144

2257

2343

2391

2396

2355

2269

2145

1989

1812

1624

1438

1263

1109

986

900

854

846

872

922

988

1057

1123

1179

1224

1259

1289

1318

1351

1390

1435

1484

1536

1586

1630

1665

1690

1704

1709

1705

1697

1688

1679

1673

1670

1670

1673

1677

1681

1684

1685

1687

1688

1690

1692

1696

1699

1703

1705

1706

1705

1702

1699

1696

1693

1690

1689

1689

1690

1693

1696

1699

1702

1705

1706

1706

1704

1702

1699

1697

1695

1694

1695

1697

1701

1705

1710

1715

1719

1721

1721

1719

1717

1715

1714

1716

1720

1726

1732

1739

1745

1748

1750

1749

1748

1746

1745

1746

1748

1753

1758

1764

1770

1775

1777

1778

1778

1777

1776

1776

1777

1779

1782

1785

1788

1790

1791

1790

1787

1782

1777

1770

1765

1760

1756

1754

1754

1754

1754

1752

1747

1740

1730

1717

1704

1691

1679

1669

1661

1653

1647

1640

1633

1625

1615

1604

1593

1581

1569

1559

1550

1544

1538

1534

1531

1528

1525

1522

1518

1514

1511

1508

1505

1504

1504

1504

1506

1507

1508

1508

1507

1505

1502

1499

1497

1497

1499

1503

1509

1516

1522

1526

1528

1528

1527

1524

1522

1520

1520

1521

1522

1525

1527

1529

1530

1531

1532

1534

1536

1538

1540

1541

1542

1542

1541

1539

1538

1538

1539

1543

1547

1552

1557

1561

1562

1561

1558

1554

1549

1546

1543

1542

1542

1544

1546

1548

1549

1550

1551

1550

1550

1549

1549

1550

1552

1555

1558

1561

1563

1565

1565

1565

1565

1565

1566

1567

1569

1570

1572

1574

1576

1577

1577

1577

1576

1575

1573

1571

1570

1569

1568

1569

1569

1570

1571

1572

1572

1573

1574

1575

1576

1577

1577

1577

1576

1575

1574

1573

1574

1575

1577

1579

1583

1587

1591

1595

1598

1600

1601

1600

1597

1595

1591

1589

1587

1586

1586

1586

1587

1588

1589

1589

1590

1592

1593

1595

1597

1599

1600

1601

1600

1599

1596

1593

1589

1585

1583

1582

1582

1583

1586

1589

1592

1596

1599

1603

1606

1608

1609

1609

1607

1604

1601

1599

1599

1601

1606

1614

1623

1632

1639

1645

1648

1648

1647

1645

1642

1640

1638

1637

1637

1637

1637

1637

1639

1641

1645

1651

1657

1664

1670

1674

1675

1673

1669

1662

1655

1649

1645

1643

1643

1644

1644

1643

1638

1630

1619

1607

1594

1581

1571

1565

1562

1564

1569

1576

1583

1591

1596

1599

1600

1598

1594

1590

1582

1581

1580

1581

1582

1584

1586

1588

1589

1590

1590

1589

1587

1583

1576

1565

1550

1533

1515

1500

1493

1501

1530

1584

1667

1776

1906

2047

2185

2308

2402

2456

2463

2421

2333

2204

2042

1857

1662

1466

1281

1117

985

890

836

822

843

890

954

1024

1091
