value,sample number
2042,0
2061,1
2100,2
2123,3
2109,4
2070,5
2042,6
2044,7
2072,8
2101,9
2096,10
2057,11
2009,12
1988,13
2007,14
2055,15
2092,16
2095,17
2067,18
2030,19
2017,20
2031,21
2055,22
2050,23
2015,24
1971,25
1947,26
1954,27
1985,28
2010,29
1938,30
1974,31
1981,32
1965,33
1941,34
1937,35
1957,36
1991,37
2003,38
1977,39
1946,40
1937,41
1961,42
2009,43
2047,44
2052,45
2026,46
1994,47
1985,48
2001,49
2031,50
2042,51
2011,52
1950,53
1887,54
1864,55
1898,56
1978,57
2071,58
2162,59
2835,60
2724,61
2537,62
2350,63
2174,64
2013,65
1837,66
1613,67
1377,68
1213,69
1163,70
1214,71
1323,72
1418,73
1479,74
1515,75
1553,76
1610,77
1687,78
1755,79
1779,80
1771,81
1758,82
1777,83
1842,84
1949,85
2043,86
2087,87
2084,88
2067,89
2110,90
2084,91
2091,92
2129,93
2168,94
2180,95
2159,96
2125,97
2106,98
2115,99
2138,100
2147,101
2130,102
2095,103
2067,104
2071,105
2114,106
2167,107
2197,108
2195,109
2169,110
2139,111
2131,112
2152,113
2167,114
2157,115
2123,116
2087,117
2083,118
2110,119
2146,120
2161,121
2183,122
2185,123
2156,124
2117,125
2093,126
2107,127
2146,128
2183,129
2196,130
2188,131
2170,132
2178,133
2203,134
2241,135
2261,136
2252,137
2224,138
2199,139
2197,140
2223,141
2259,142
2270,143
2245,144
2205,145
2175,146
2175,147
2203,148
2227,149
2211,150
2237,151
2237,152
2221,153
2209,154
2215,155
2227,156
2232,157
2219,158
2185,159
2141,160
2109,161
2114,162
2143,163
2168,164
2159,165
2121,166
2065,167
2025,168
2018,169
2041,170
2056,171
2042,172
2009,173
1981,174
1977,175
1998,176
2021,177
2015,178
1972,179
1962,180
1939,181
1900,182
1880,183
1887,184
1921,185
1946,186
1942,187
1915,188
1897,189
1911,190
1957,191
2009,192
2031,193
2011,194
1973,195
1951,196
1957,197
1988,198
2022,199
2022,200
1989,201
1941,202
1911,203
1913,204
1951,205
1989,206
1994,207
1975,208
1957,209
1992,210
1953,211
1939,212
1949,213
1971,214
1981,215
1970,216
1958,217
1965,218
1987,219
2014,220
2027,221
2006,222
1961,223
1923,224
1916,225
1941,226
1986,227
2013,228
2006,229
1972,230
1946,231
1949,232
1979,233
2022,234
2035,235
2017,236
1987,237
1975,238
1987,239
1991,240
2012,241
2041,242
2057,243
2045,244
2019,245
2005,246
2006,247
2027,248
2051,249
2043,250
2006,251
1961,252
1934,253
1934,254
1966,255
1994,256
1996,257
1977,258
1954,259
1953,260
1982,261
2029,262
2052,263
2036,264
2007,265
1994,266
2012,267
2057,268
2097,269
2146,270
2157,271
2135,272
2093,273
2043,274
2022,275
2029,276
2047,277
2062,278
2053,279
2034,280
2028,281
2051,282
2095,283
2133,284
2129,285
2091,286
2035,287
2004,288
2003,289
2033,290
2062,291
2063,292
2036,293
2007,294
1995,295
1995,296
2002,297
1988,298
1953,299
1956,300
1929,301
1901,302
1898,303
1927,304
1970,305
1997,306
1988,307
1951,308
1916,309
1913,310
1945,311
1989,312
2010,313
1998,314
1963,315
1931,316
1931,317
1960,318
1979,319
1965,320
1921,321
1873,322
1871,323
1930,324
2044,325
2183,326
2327,327
2470,328
2599,329
2271,330
2052,331
1866,332
1707,333
1541,334
1364,335
1221,336
1142,337
1147,338
1218,339
1335,340
1451,341
1525,342
1554,343
1573,344
1614,345
1679,346
1753,347
1819,348
1874,349
1917,350
1964,351
2017,352
2067,353
2099,354
2097,355
2073,356
2043,357
2031,358
2050,359
2066,360
2101,361
2155,362
2177,363
2154,364
2099,365
2051,366
2034,367
2061,368
2095,369
2105,370
2087,371
2063,372
2055,373
2070,374
2103,375
2128,376
2120,377
2091,378
2067,379
2074,380
2107,381
2146,382
2158,383
2141,384
2115,385
2105,386
2117,387
2141,388
2162,389
2135,390
2182,391
2197,392
2172,393
2141,394
2129,395
2143,396
2167,397
2175,398
2154,399
2115,400
2094,401
2107,402
2153,403
2196,404
2206,405
2180,406
2134,407
2106,408
2110,409
2145,410
2175,411
2169,412
2139,413
2119,414
2123,415
2147,416
2175,417
2187,418
2171,419
2172,420
2147,421
2110,422
2088,423
2101,424
2139,425
2168,426
2167,427
2140,428
2096,429
2069,430
2078,431
2115,432
2137,433
2119,434
2077,435
2037,436
2024,437
2055,438
2110,439
2155,440
2167,441
2155,442
2149,443
2159,444
2181,445
2197,446
2186,447
2143,448
2095,449
2067,450
2022,451
1999,452
2005,453
2015,454
2007,455
1972,456
1927,457
1897,458
1898,459
1933,460
1968,461
1973,462
1954,463
1931,464
1927,465
1954,466
1990,467
2000,468
1964,469
1903,470
1863,471
1862,472
1889,473
1925,474
1926,475
1891,476
1845,477
1826,478
1845,479
1966,480
2010,481
2066,482
2097,483
2092,484
2067,485
2047,486
2051,487
2087,488
2131,489
2149,490
2135,491
2110,492
2099,493
2119,494
2166,495
2206,496
2211,497
2180,498
2134,499
2115,500
2133,501
2171,502
2182,503
2149,504
2094,505
2051,506
2057,507
2105,508
2145,509
2058,510
2091,511
2079,512
2030,513
1977,514
1944,515
1939,516
1949,517
1940,518
1895,519
1839,520
1809,521
1822,522
1865,523
1901,524
1898,525
1854,526
1797,527
1772,528
1786,529
1830,530
1859,531
1854,532
1826,533
1802,534
1815,535
1860,536
1902,537
1919,538
1907,539
1932,540
1907,541
1871,542
1860,543
1878,544
1909,545
1925,546
1914,547
1878,548
1855,549
1855,550
1880,551
1914,552
1938,553
1943,554
1933,555
1929,556
1946,557
1965,558
1978,559
1975,560
1959,561
1930,562
1901,563
1889,564
1886,565
1875,566
1841,567
1801,568
1769,569
1828,570
1832,571
1859,572
1899,573
1928,574
1924,575
1900,576
1875,577
1875,578
1901,579
1935,580
1955,581
1945,582
1917,583
1898,584
1909,585
1944,586
1995,587
2043,588
2067,589
2060,590
2038,591
2015,592
2004,593
1988,594
1955,595
1913,596
1883,597
1885,598
1914,599
1915,600
2039,601
2212,602
2388,603
2549,604
2677,605
2791,606
2888,607
2899,608
2778,609
2563,610
2309,611
2062,612
1859,613
1687,614
1519,615
1363,616
1240,617
1161,618
1131,619
1161,620
1249,621
1360,622
1442,623
1475,624
1488,625
1517,626
1574,627
1662,628
1763,629
2058,630
2098,631
2103,632
2081,633
2057,634
2051,635
2059,636
2079,637
2088,638
2073,639
2050,640
2045,641
2075,642
2131,643
2183,644
2191,645
2152,646
2095,647
2059,648
2061,649
2101,650
2143,651
2161,652
2157,653
2134,654
2111,655
2110,656
2127,657
2133,658
2119,659
2179,660
2162,661
2131,662
2118,663
2140,664
2187,665
2220,666
2207,667
2169,668
2139,669
2137,670
2169,671
2211,672
2236,673
2236,674
2213,675
2197,676
2213,677
2258,678
2306,679
2318,680
2289,681
2243,682
2220,683
2230,684
2265,685
2292,686
2286,687
2259,688
2226,689
2233,690
2209,691
2207,692
2223,693
2243,694
2246,695
2228,696
2201,697
2193,698
2209,699
2251,700
2293,701
2301,702
2268,703
2215,704
2182,705
2179,706
2197,707
2205,708
2186,709
2157,710
2141,711
2151,712
2182,713
2205,714
2199,715
2162,716
2114,717
2081,718
2076,719
1996,720
2011,721
2040,722
2051,723
2031,724
1996,725
1975,726
1985,727
2011,728
2034,729
2033,730
2010,731
1979,732
1964,733
1970,734
1997,735
2024,736
2026,737
1997,738
1959,739
1949,740
1974,741
2015,742
2042,743
2034,744
2004,745
1981,746
1983,747
2009,748
2028,749
2017,750
2037,751
2019,752
1981,753
1934,754
1911,755
1926,756
1961,757
1994,758
2003,759
1987,760
1975,761
1978,762
2002,763
2031,764
2034,765
2003,766
1954,767
1927,768
1939,769
1979,770
2017,771
2018,772
1979,773
1930,774
1916,775
1943,776
1989,777
2020,778
2019,779
2081,780
2061,781
2023,782
1997,783
1996,784
2013,785
2012,786
1989,787
1954,788
1927,789
1932,790
1967,791
2011,792
2041,793
2038,794
2012,795
1986,796
1978,797
2000,798
2030,799
2051,800
2042,801
2008,802
1979,803
1982,804
2011,805
2031,806
2021,807
1995,808
1980,809
2047,810
2007,811
2003,812
2037,813
2083,814
2098,815
2083,816
2053,817
2038,818
2051,819
2091,820
2127,821
2125,822
2094,823
2051,824
2018,825
2023,826
2058,827
2070,828
2054,829
2019,830
1994,831
1999,832
2028,833
2056,834
2053,835
2021,836
1979,837
1958,838
1971,839
2001,840
2021,841
2051,842
2061,843
2043,844
2005,845
1982,846
1989,847
2014,848
2041,849
2044,850
2018,851
1982,852
1969,853
1985,854
2014,855
2027,856
2009,857
1967,858
1929,859
1919,860
1943,861
1987,862
2007,863
1998,864
1970,865
1951,866
1958,867
1997,868
2038,869
2039,870
2063,871
2060,872
2035,873
2007,874
2004,875
2029,876
2062,877
2067,878
2036,879
1985,880
1949,881
1941,882
1976,883
2046,884
2125,885
2193,886
2258,887
2347,888
2483,889
2648,890
2781,891
2868,892
2892,893
2818,894
2693,895
2555,896
2393,897
2181,898
1925,899
1275,900
1335,901
1387,902
1454,903
1534,904
1615,905
1681,906
1714,907
1721,908
1738,909
1791,910
1880,911
1979,912
2062,913
2109,914
2110,915
2093,916
2086,917
2093,918
2099,919
2082,920
2042,921
1999,922
1985,923
2009,924
2055,925
2086,926
2088,927
2068,928
2043,929
2007,930
1999,931
2025,932
2071,933
2105,934
2103,935
2078,936
2052,937
2046,938
2071,939
2117,940
2157,941
2166,942
2140,943
2110,944
2105,945
2121,946
2153,947
2175,948
2173,949
2152,950
2132,951
2132,952
2149,953
2167,954
2169,955
2150,956
2122,957
2113,958
2133,959
2127,960
2159,961
2196,962
2210,963
2189,964
2153,965
2132,966
2137,967
2171,968
2209,969
2221,970
2202,971
2159,972
2132,973
2133,974
2142,975
2145,976
2135,977
2115,978
2094,979
2105,980
2157,981
2221,982
2254,983
2233,984
2166,985
2092,986
2042,987
2042,988
2072,989
2147,990
2159,991
2153,992
2129,993
2102,994
2089,995
2094,996
2110,997
2108,998
2081,999
2037,1000
1997,1001
1981,1002
1997,1003
2019,1004
2020,1005
2003,1006
1981,1007
1982,1008
2008,1009
2054,1010
2087,1011
2078,1012
2027,1013
1971,1014
1941,1015
1945,1016
1963,1017
1961,1018
1929,1019
2019,1020
1987,1021
1932,1022
1895,1023
1893,1024
1923,1025
1951,1026
1953,1027
1937,1028
1919,1029
1922,1030
1943,1031
1969,1032
1974,1033
1953,1034
1916,1035
1881,1036
1875,1037
1908,1038
1956,1039
1980,1040
1974,1041
1947,1042
1929,1043
1934,1044
1949,1045
1958,1046
1945,1047
1918,1048
1898,1049
1930,1050
1927,1051
1943,1052
1970,1053
1999,1054
2006,1055
1983,1056
1947,1057
1933,1058
1946,1059
1979,1060
1997,1061
1981,1062
1939,1063
1896,1064
1883,1065
1905,1066
1943,1067
1969,1068
1964,1069
1932,1070
1902,1071
1895,1072
1914,1073
1937,1074
1935,1075
1914,1076
1886,1077
1878,1078
1908,1079
1930,1080
1945,1081
1981,1082
1999,1083
1990,1084
1959,1085
1924,1086
1903,1087
1907,1088
1913,1089
1900,1090
1869,1091
1847,1092
1861,1093
1909,1094
1971,1095
2009,1096
1998,1097
1957,1098
1919,1099
1916,1100
1950,1101
2001,1102
2026,1103
2015,1104
1981,1105
1959,1106
1965,1107
1995,1108
2024,1109
2074,1110
2107,1111
2104,1112
2075,1113
2047,1114
2051,1115
2086,1116
2147,1117
2191,1118
2190,1119
2147,1120
2086,1121
2042,1122
2025,1123
2027,1124
2029,1125
2022,1126
2011,1127
2018,1128
2038,1129
2061,1130
2051,1131
2003,1132
1943,1133
1894,1134
1886,1135
1915,1136
1961,1137
1995,1138
1998,1139
2038,1140
2017,1141
1986,1142
1977,1143
1999,1144
2046,1145
2086,1146
2082,1147
2039,1148
1993,1149
1967,1150
1974,1151
2001,1152
2018,1153
2014,1154
1986,1155
1951,1156
1934,1157
1940,1158
1963,1159
1991,1160
2027,1161
2089,1162
2205,1163
2371,1164
2550,1165
2695,1166
2766,1167
2717,1168
2565,1169
1497,1170
1286,1171
1171,1172
1174,1173
1252,1174
1340,1175
1403,1176
1444,1177
1499,1178
1567,1179
1643,1180
1713,1181
1761,1182
1794,1183
1826,1184
1875,1185
1947,1186
2029,1187
2083,1188
2101,1189
2095,1190
2089,1191
2111,1192
2164,1193
2218,1194
2231,1195
2199,1196
2141,1197
2089,1198
2059,1199
2061,1200
2087,1201
2124,1202
2143,1203
2138,1204
2115,1205
2093,1206
2099,1207
2122,1208
2145,1209
2146,1210
2129,1211
2109,1212
2114,1213
2147,1214
2193,1215
2219,1216
2215,1217
2185,1218
2143,1219
2120,1220
2124,1221
2143,1222
2143,1223
2123,1224
2095,1225
2079,1226
2090,1227
2127,1228
2172,1229
2172,1230
2209,1231
2222,1232
2217,1233
2210,1234
2221,1235
2246,1236
2282,1237
2308,1238
2306,1239
2281,1240
2255,1241
2247,1242
2258,1243
2266,1244
2258,1245
2244,1246
2235,1247
2246,1248
2282,1249
2332,1250
2365,1251
2359,1252
2326,1253
2285,1254
2262,1255
2259,1256
2269,1257
2257,1258
2213,1259
2182,1260
2166,1261
2135,1262
2121,1263
2131,1264
2156,1265
2171,1266
2158,1267
2123,1268
2087,1269
2078,1270
2098,1271
2123,1272
2117,1273
2077,1274
2018,1275
1979,1276
1979,1277
2014,1278
2043,1279
2036,1280
1995,1281
1938,1282
1902,1283
1907,1284
1942,1285
1971,1286
1966,1287
1940,1288
1906,1289
1967,1290
1945,1291
1938,1292
1949,1293
1960,1294
1953,1295
1929,1296
1900,1297
1900,1298
1935,1299
1988,1300
2022,1301
2019,1302
1987,1303
1951,1304
1942,1305
1956,1306
1977,1307
1978,1308
1955,1309
1923,1310
1902,1311
1909,1312
1942,1313
1981,1314
1998,1315
1991,1316
1975,1317
1973,1318
1995,1319
2014,1320
2031,1321
2062,1322
2081,1323
2074,1324
2057,1325
2047,1326
2053,1327
2063,1328
2063,1329
2032,1330
1983,1331
1943,1332
1940,1333
1969,1334
2006,1335
2015,1336
1987,1337
1939,1338
1900,1339
1899,1340
1923,1341
1956,1342
1967,1343
1947,1344
1915,1345
1899,1346
1912,1347
1950,1348
1988,1349
1997,1350
2030,1351
2030,1352
2001,1353
1971,1354
1971,1355
2009,1356
2066,1357
2100,1358
2090,1359
2043,1360
2001,1361
1979,1362
1985,1363
2007,1364
2015,1365
1995,1366
1960,1367
1938,1368
1937,1369
1958,1370
1973,1371
1966,1372
1943,1373
1931,1374
1949,1375
1998,1376
2057,1377
2081,1378
2062,1379
2061,1380
2043,1381
2011,1382
1996,1383
2015,1384
2065,1385
2099,1386
2092,1387
2050,1388
2011,1389
1998,1390
2018,1391
2062,1392
2088,1393
2085,1394
2063,1395
2051,1396
2065,1397
2098,1398
2121,1399
2107,1400
2065,1401
2009,1402
1986,1403
2003,1404
2036,1405
2061,1406
2047,1407
2008,1408
1966,1409
1960,1410
1939,1411
1940,1412
1962,1413
1986,1414
1983,1415
1951,1416
1915,1417
1908,1418
1937,1419
1985,1420
2015,1421
2015,1422
1991,1423
1971,1424
1975,1425
2010,1426
2061,1427
2089,1428
2081,1429
2052,1430
2021,1431
2007,1432
2008,1433
1999,1434
1953,1435
1903,1436
1894,1437
1955,1438
2083,1439
2770,1440
2683,1441
2531,1442
2341,1443
2125,1444
1901,1445
1697,1446
1515,1447
1365,1448
1270,1449
1218,1450
1201,1451
1205,1452
1252,1453
1355,1454
1478,1455
1572,1456
1627,1457
1652,1458
1667,1459
1709,1460
1786,1461
1889,1462
1991,1463
2068,1464
2103,1465
2103,1466
2083,1467
2059,1468
2028,1469
2072,1470
2119,1471
2123,1472
2094,1473
2069,1474
2066,1475
2087,1476
2122,1477
2140,1478
2125,1479
2093,1480
2074,1481
2087,1482
2136,1483
2183,1484
2193,1485
2167,1486
2131,1487
2115,1488
2136,1489
2182,1490
2203,1491
2182,1492
2131,1493
2077,1494
2060,1495
2084,1496
2127,1497
2151,1498
2141,1499
2161,1500
2141,1501
2111,1502
2102,1503
2124,1504
2170,1505
2207,1506
2215,1507
2197,1508
2169,1509
2161,1510
2178,1511
2211,1512
2226,1513
2213,1514
2179,1515
2152,1516
2159,1517
2199,1518
2245,1519
2261,1520
2245,1521
2217,1522
2210,1523
2237,1524
2279,1525
2297,1526
2269,1527
2219,1528
2168,1529
2221,1530
2186,1531
2168,1532
2171,1533
2179,1534
2166,1535
2134,1536
2100,1537
2087,1538
2103,1539
2139,1540
2165,1541
2161,1542
2139,1543
2122,1544
2127,1545
2153,1546
2184,1547
2186,1548
2149,1549
2094,1550
2052,1551
2040,1552
2059,1553
2087,1554
2094,1555
2071,1556
2034,1557
2024,1558
2054,1559
1913,1560
1891,1561
1901,1562
1909,1563
1903,1564
1893,1565
1897,1566
1927,1567
1971,1568
1998,1569
1983,1570
1937,1571
1889,1572
1875,1573
1895,1574
1938,1575
1977,1576
1997,1577
2001,1578
1995,1579
2002,1580
2019,1581
2034,1582
2033,1583
2017,1584
1989,1585
1965,1586
1951,1587
1951,1588
1957,1589
1954,1590
1977,1591
1971,1592
1945,1593
1931,1594
1953,1595
1995,1596
2035,1597
2034,1598
1991,1599
1926,1600
1878,1601
1873,1602
1913,1603
1966,1604
1993,1605
1986,1606
1955,1607
1931,1608
1935,1609
1966,1610
1995,1611
1997,1612
1972,1613
1934,1614
1916,1615
1931,1616
1975,1617
2007,1618
2005,1619
2020,1620
1991,1621
1948,1622
1923,1623
1931,1624
1967,1625
1988,1626
1971,1627
1935,1628
1907,1629
1909,1630
1942,1631
1994,1632
2034,1633
2043,1634
2023,1635
2002,1636
2010,1637
2045,1638
2083,1639
2086,1640
2056,1641
2009,1642
1985,1643
1999,1644
2041,1645
2078,1646
2073,1647
2034,1648
1996,1649
2033,1650
2022,1651
2031,1652
2066,1653
2098,1654
2101,1655
2075,1656
2050,1657
2041,1658
2058,1659
2095,1660
2125,1661
2123,1662
2093,1663
2057,1664
2052,1665
2075,1666
2105,1667
2111,1668
2093,1669
2068,1670
2060,1671
2081,1672
2122,1673
2158,1674
2166,1675
2148,1676
2115,1677
2092,1678
2097,1679
1987,1680
1993,1681
2011,1682
2005,1683
1973,1684
1935,1685
1918,1686
1938,1687
1982,1688
2026,1689
2040,1690
2028,1691
2005,1692
1993,1693
2001,1694
2025,1695
2035,1696
2021,1697
1986,1698
1951,1699
1947,1700
1974,1701
2012,1702
2028,1703
2007,1704
1966,1705
1933,1706
1927,1707
1949,1708
1972,1709
1986,1710
2094,1711
2205,1712
2328,1713
2477,1714
2641,1715
2797,1716
2911,1717
2894,1718
2729,1719
2491,1720
2247,1721
2033,1722
1860,1723
1689,1724
1487,1725
1298,1726
1172,1727
1140,1728
1190,1729
1279,1730
1372,1731
1441,1732
1474,1733
1495,1734
1544,1735
1615,1736
1693,1737
1747,1738
1781,1739
2155,1740
2142,1741
2109,1742
2086,1743
2089,1744
2111,1745
2129,1746
2126,1747
2105,1748
2089,1749
2091,1750
2114,1751
2145,1752
2151,1753
2126,1754
2087,1755
2067,1756
2083,1757
2126,1758
2165,1759
2170,1760
2148,1761
2115,1762
2105,1763
2134,1764
2187,1765
2223,1766
2221,1767
2189,1768
2159,1769
2157,1770
2114,1771
2097,1772
2110,1773
2137,1774
2148,1775
2137,1776
2119,1777
2116,1778
2137,1779
2175,1780
2195,1781
2182,1782
2147,1783
2121,1784
2125,1785
2157,1786
2193,1787
2203,1788
2179,1789
2133,1790
2108,1791
2125,1792
2178,1793
2233,1794
2256,1795
2236,1796
2199,1797
2178,1798
2185,1799
2178,1800
2212,1801
2259,1802
2278,1803
2254,1804
2212,1805
2183,1806
2186,1807
2214,1808
2245,1809
2265,1810
2265,1811
2252,1812
2247,1813
2258,1814
2273,1815
2261,1816
2218,1817
2169,1818
2135,1819
2135,1820
2166,1821
2210,1822
2225,1823
2196,1824
2135,1825
2087,1826
2077,1827
2095,1828
2118,1829
2079,1830
2103,1831
2091,1832
2045,1833
1995,1834
1971,1835
1980,1836
2004,1837
2013,1838
1995,1839
1957,1840
1926,1841
1923,1842
1947,1843
1969,1844
1963,1845
1940,1846
1914,1847
1911,1848
1931,1849
1967,1850
1989,1851
1974,1852
1937,1853
1897,1854
1885,1855
1909,1856
1950,1857
1977,1858
1972,1859
2087,1860
2017,1861
1924,1862
1855,1863
1840,1864
1884,1865
1945,1866
1979,1867
1973,1868
1946,1869
1927,1870
1925,1871
1946,1872
1959,1873
1947,1874
1907,1875
1878,1876
1884,1877
1923,1878
1964,1879
1980,1880
1965,1881
1939,1882
1930,1883
1949,1884
1983,1885
2007,1886
2003,1887
1977,1888
1955,1889
1965,1890
1947,1891
1961,1892
1999,1893
2039,1894
2047,1895
2017,1896
1969,1897
1943,1898
1955,1899
1995,1900
2030,1901
2027,1902
1988,1903
1942,1904
1922,1905
1933,1906
1954,1907
1954,1908
1928,1909
1886,1910
1857,1911
1860,1912
1893,1913
1931,1914
1946,1915
1935,1916
1915,1917
1917,1918
1946,1919
1942,1920
1971,1921
2014,1922
2040,1923
2037,1924
2015,1925
2009,1926
2028,1927
2071,1928
2117,1929
2137,1930
2125,1931
2097,1932
2089,1933
2095,1934
2107,1935
2109,1936
2083,1937
2028,1938
1974,1939
1953,1940
1961,1941
1992,1942
2023,1943
2031,1944
2025,1945
2020,1946
2035,1947
2068,1948
2094,1949
2095,1950
2132,1951
2137,1952
2114,1953
2085,1954
2074,1955
2090,1956
2119,1957
2121,1958
2095,1959
2042,1960
1993,1961
1977,1962
1997,1963
2023,1964
2026,1965
2003,1966
1972,1967
1959,1968
1977,1969
2012,1970
2036,1971
2032,1972
1997,1973
1953,1974
1933,1975
1951,1976
1991,1977
2019,1978
2023,1979
2019,1980
1990,1981
1951,1982
1929,1983
1927,1984
1944,1985
1954,1986
1955,1987
1964,1988
2009,1989
2115,1990
2268,1991
2441,1992
2595,1993
2717,1994
2798,1995
2837,1996
2789,1997
2666,1998
2514,1999
2324,2000
2106,2001
1881,2002
1660,2003
1453,2004
1317,2005
1257,2006
1247,2007
1258,2008
1285,2009
1615,2010
1637,2011
1690,2012
1778,2013
1871,2014
1943,2015
1988,2016
2011,2017
2036,2018
2078,2019
2135,2020
2167,2021
2156,2022
2114,2023
2073,2024
2062,2025
2083,2026
2121,2027
2145,2028
2142,2029
2120,2030
2099,2031
2101,2032
2130,2033
2169,2034
2185,2035
2170,2036
2139,2037
2126,2038
2146,2039
2207,2040
2243,2041
2266,2042
2247,2043
2179,2044
2079,2045
2002,2046
1979,2047
2010,2048
2059,2049
2086,2050
2075,2051
2045,2052
2045,2053
2085,2054
2147,2055
2188,2056
2182,2057
2143,2058
2110,2059
2111,2060
2142,2061
2183,2062
2206,2063
2203,2064
2188,2065
2192,2066
2229,2067
2287,2068
2338,2069
2263,2070
2258,2071
2233,2072
2198,2073
2166,2074
2158,2075
2181,2076
2223,2077
2249,2078
2238,2079
2204,2080
2180,2081
2193,2082
2234,2083
2266,2084
2263,2085
2231,2086
2191,2087
2175,2088
2197,2089
2243,2090
2275,2091
2271,2092
2233,2093
2191,2094
2173,2095
2188,2096
2223,2097
2246,2098
2238,2099
2154,2100
2127,2101
2093,2102
2074,2103
2070,2104
2075,2105
2069,2106
2039,2107
1987,2108
1931,2109
1901,2110
1899,2111
1916,2112
1930,2113
1925,2114
1895,2115
1869,2116
1865,2117
1887,2118
1915,2119
1917,2120
1897,2121
1869,2122
1863,2123
1890,2124
1939,2125
1974,2126
1975,2127
1953,2128
1933,2129
1950,2130
1925,2131
1925,2132
1949,2133
1974,2134
1972,2135
1945,2136
1903,2137
1885,2138
1899,2139
1939,2140
1966,2141
1967,2142
1942,2143
1905,2144
1893,2145
1910,2146
1939,2147
1947,2148
1926,2149
1891,2150
1875,2151
1894,2152
1939,2153
1974,2154
1971,2155
1935,2156
1892,2157
1874,2158
1885,2159
1880,2160
1917,2161
1968,2162
1996,2163
1991,2164
1969,2165
1949,2166
1959,2167
2001,2168
2042,2169
2047,2170
2019,2171
1979,2172
1966,2173
1982,2174
2015,2175
2036,2176
2024,2177
1985,2178
1946,2179
1942,2180
1983,2181
2043,2182
2077,2183
2069,2184
2028,2185
1995,2186
1983,2187
1996,2188
2007,2189
1998,2190
2025,2191
2023,2192
2003,2193
1980,2194
1973,2195
1983,2196
2013,2197
2035,2198
2039,2199
2023,2200
2009,2201
2007,2202
2024,2203
2046,2204
2046,2205
2024,2206
1993,2207
1987,2208
2009,2209
2045,2210
2061,2211
2035,2212
1986,2213
1943,2214
1930,2215
1954,2216
1993,2217
2015,2218
2013,2219
2047,2220
2023,2221
2005,2222
2018,2223
2055,2224
2092,2225
2101,2226
2073,2227
2027,2228
1989,2229
1976,2230
1997,2231
2043,2232
2068,2233
2055,2234
2013,2235
1979,2236
1982,2237
2022,2238
2066,2239
2077,2240
2058,2241
2031,2242
2026,2243
2039,2244
2061,2245
2058,2246
2022,2247
1965,2248
1910,2249
1943,2250
1907,2251
1900,2252
1937,2253
1990,2254
2035,2255
2083,2256
2151,2257
2271,2258
2436,2259
2614,2260
2754,2261
2803,2262
2726,2263
2569,2264
2414,2265
2269,2266
2122,2267
1964,2268
1764,2269
1521,2270
1320,2271
1221,2272
1226,2273
1291,2274
1358,2275
1400,2276
1428,2277
1478,2278
1553,2279
1879,2280
1948,2281
2029,2282
2094,2283
2119,2284
2111,2285
2103,2286
2113,2287
2140,2288
2163,2289
2158,2290
2126,2291
2094,2292
2095,2293
2127,2294
2175,2295
2205,2296
2195,2297
2150,2298
2103,2299
2085,2300
2101,2301
2135,2302
2147,2303
2133,2304
2106,2305
2092,2306
2103,2307
2135,2308
2163,2309
2141,2310
2169,2311
2158,2312
2123,2313
2093,2314
2090,2315
2111,2316
2142,2317
2150,2318
2135,2319
2109,2320
2097,2321
2116,2322
2155,2323
2194,2324
2197,2325
2165,2326
2119,2327
2099,2328
2123,2329
2179,2330
2226,2331
2243,2332
2228,2333
2199,2334
2185,2335
2190,2336
2209,2337
2215,2338
2199,2339
2326,2340
2297,2341
2245,2342
2209,2343
2211,2344
2241,2345
2270,2346
2273,2347
2243,2348
2203,2349
2185,2350
2190,2351
2209,2352
2215,2353
2196,2354
2162,2355
2139,2356
2146,2357
2171,2358
2193,2359
2195,2360
2177,2361
2151,2362
2141,2363
2153,2364
2181,2365
2196,2366
2177,2367
2133,2368
2093,2369
2054,2370
2008,2371
1993,2372
2017,2373
2045,2374
2053,2375
2031,2376
1999,2377
1977,2378
1975,2379
1990,2380
1995,2381
1970,2382
1916,2383
1866,2384
1851,2385
1869,2386
1903,2387
1929,2388
1931,2389
1921,2390
1924,2391
1957,2392
2003,2393
2029,2394
2021,2395
1986,2396
1945,2397
1926,2398
1934,2399
1917,2400
1953,2401
1994,2402
2020,2403
2013,2404
1982,2405
1961,2406
1963,2407
1990,2408
2018,2409
2014,2410
1986,2411
1957,2412
1951,2413
1972,2414
2011,2415
2030,2416
2014,2417
1971,2418
1925,2419
1909,2420
1929,2421
1962,2422
1976,2423
1967,2424
1945,2425
1941,2426
1965,2427
2007,2428
2036,2429
2007,2430
2017,2431
1994,2432
1955,2433
1927,2434
1928,2435
1962,2436
2008,2437
2027,2438
2015,2439
1986,2440
1963,2441
1965,2442
1997,2443
2027,2444
2037,2445
2029,2446
2014,2447
2010,2448
2019,2449
2033,2450
2019,2451
1977,2452
1929,2453
1899,2454
1909,2455
1953,2456
2006,2457
2037,2458
2035,2459
2025,2460
2004,2461
1979,2462
1974,2463
1996,2464
2033,2465
2059,2466
2051,2467
2017,2468
1994,2469
2001,2470
2031,2471
2069,2472
2079,2473
2054,2474
2013,2475
1989,2476
1998,2477
2036,2478
2079,2479
2099,2480
2088,2481
2068,2482
2063,2483
2088,2484
2129,2485
2156,2486
2153,2487
2126,2488
2099,2489
2076,2490
2022,2491
2008,2492
2033,2493
2067,2494
2071,2495
2044,2496
2007,2497
1983,2498
1981,2499
1991,2500
1992,2501
1970,2502
1934,2503
1909,2504
1914,2505
1953,2506
2000,2507
2022,2508
2010,2509
1983,2510
1967,2511
1973,2512
1996,2513
2015,2514
2013,2515
1991,2516
1963,2517
1957,2518
1981,2519
1946,2520
1977,2521
2041,2522
2114,2523
2182,2524
2255,2525
2365,2526
2513,2527
2667,2528
2799,2529
2859,2530
2781,2531
2588,2532
2373,2533
2175,2534
2001,2535
1815,2536
1602,2537
1366,2538
1184,2539
1108,2540
1137,2541
1221,2542
1303,2543
1368,2544
1417,2545
1461,2546
1525,2547
1620,2548
1716,2549
2026,2550
2099,2551
2118,2552
2098,2553
2072,2554
2074,2555
2111,2556
2164,2557
2193,2558
2186,2559
2157,2560
2130,2561
2129,2562
2162,2563
2201,2564
2215,2565
2191,2566
2154,2567
2134,2568
2130,2569
2142,2570
2149,2571
2130,2572
2090,2573
2061,2574
2069,2575
2111,2576
2163,2577
2189,2578
2179,2579
2182,2580
2139,2581
2090,2582
2071,2583
2101,2584
2155,2585
2203,2586
2207,2587
2171,2588
2124,2589
2107,2590
2127,2591
2167,2592
2188,2593
2173,2594
2137,2595
2117,2596
2135,2597
2189,2598
2242,2599
2260,2600
2247,2601
2211,2602
2179,2603
2171,2604
2191,2605
2202,2606
2181,2607
2150,2608
2132,2609
2201,2610
2162,2611
2155,2612
2179,2613
2205,2614
2201,2615
2170,2616
2137,2617
2130,2618
2156,2619
2196,2620
2218,2621
2211,2622
2184,2623
2157,2624
2163,2625
2191,2626
2217,2627
2203,2628
2157,2629
2107,2630
2084,2631
2106,2632
2166,2633
2219,2634
2222,2635
2182,2636
2127,2637
2091,2638
2092,2639
2019,2640
2050,2641
2084,2642
2085,2643
2044,2644
1983,2645
1939,2646
1933,2647
1964,2648
1997,2649
1999,2650
1973,2651
1945,2652
1945,2653
1969,2654
1999,2655
2009,2656
1987,2657
1941,2658
1900,2659
1890,2660
1911,2661
1949,2662
1974,2663
1974,2664
1950,2665
1932,2666
1933,2667
1956,2668
1972,2669
1945,2670
1978,2671
1980,2672
1963,2673
1945,2674
1949,2675
1983,2676
2026,2677
2046,2678
2033,2679
1989,2680
1939,2681
1911,2682
1924,2683
1955,2684
1974,2685
1965,2686
1945,2687
1936,2688
1947,2689
1975,2690
1988,2691
1973,2692
1940,2693
1911,2694
1910,2695
1937,2696
1977,2697
1997,2698
1987,2699
2027,2700
2009,2701
1986,2702
1985,2703
2004,2704
2035,2705
2043,2706
2019,2707
1979,2708
1953,2709
1961,2710
1995,2711
2033,2712
2037,2713
1998,2714
1947,2715
1927,2716
1947,2717
1996,2718
2046,2719
2063,2720
2038,2721
1991,2722
1948,2723
1943,2724
1974,2725
2002,2726
1999,2727
1977,2728
1958,2729
2014,2730
1995,2731
2002,2732
2030,2733
2054,2734
2052,2735
2030,2736
2003,2737
1994,2738
2008,2739
2044,2740
2068,2741
2063,2742
2043,2743
2035,2744
2052,2745
2083,2746
2117,2747
2133,2748
2120,2749
2089,2750
2069,2751
2083,2752
2126,2753
2164,2754
2165,2755
2127,2756
2076,2757
2047,2758
2051,2759
1963,2760
1979,2761
2004,2762
2003,2763
1972,2764
1935,2765
1919,2766
1941,2767
1995,2768
2051,2769
2070,2770
2047,2771
2009,2772
1983,2773
1976,2774
1993,2775
2013,2776
2022,2777
2015,2778
2008,2779
2012,2780
2029,2781
2051,2782
2044,2783
2002,2784
1942,2785
1895,2786
1874,2787
1884,2788
1911,2789
2291,2790
2483,2791
2651,2792
2767,2793
2842,2794
2854,2795
2771,2796
2631,2797
2450,2798
2230,2799
1985,2800
1751,2801
1521,2802
1334,2803
1227,2804
1187,2805
1193,2806
1227,2807
1297,2808
1390,2809
1487,2810
1546,2811
1554,2812
1550,2813
1569,2814
1628,2815
1725,2816
1842,2817
1939,2818
2005,2819
2140,2820
2109,2821
2068,2822
2043,2823
2055,2824
2090,2825
2119,2826
2117,2827
2095,2828
2079,2829
2086,2830
2127,2831
2179,2832
2201,2833
2187,2834
2154,2835
2123,2836
2121,2837
2149,2838
2185,2839
2195,2840
2183,2841
2159,2842
2146,2843
2154,2844
2175,2845
2185,2846
2173,2847
2147,2848
2119,2849
2131,2850
2120,2851
2134,2852
2167,2853
2191,2854
2178,2855
2134,2856
2091,2857
2078,2858
2098,2859
2140,2860
2167,2861
2172,2862
2158,2863
2156,2864
2179,2865
2221,2866
2262,2867
2269,2868
2238,2869
2191,2870
2159,2871
2167,2872
2205,2873
2237,2874
2236,2875
2211,2876
2174,2877
2164,2878
2183,2879
2193,2880
2230,2881
2275,2882
2291,2883
2266,2884
2221,2885
2195,2886
2196,2887
2230,2888
2273,2889
2289,2890
2266,2891
2220,2892
2183,2893
2171,2894
2187,2895
2205,2896
2201,2897
2179,2898
2153,2899
2149,2900
2167,2901
2191,2902
2190,2903
2158,2904
2110,2905
2077,2906
2071,2907
2084,2908
2092,2909
2014,2910
2035,2911
2023,2912
1989,2913
1953,2914
1935,2915
1941,2916
1961,2917
1969,2918
1953,2919
1917,2920
1903,2921
1924,2922
1966,2923
2005,2924
2008,2925
1979,2926
1943,2927
1933,2928
1949,2929
1982,2930
2003,2931
1996,2932
1971,2933
1949,2934
1954,2935
1978,2936
2010,2937
2018,2938
2001,2939
2011,2940
1981,2941
1942,2942
1923,2943
1938,2944
1973,2945
1995,2946
1990,2947
1963,2948
1941,2949
1946,2950
1985,2951
2030,2952
2042,2953
2019,2954
1977,2955
1951,2956
1963,2957
2006,2958
2051,2959
2059,2960
2035,2961
1997,2962
1971,2963
1981,2964
2021,2965
2054,2966
2046,2967
2009,2968
1978,2969
1959,2970
1950,2971
1981,2972
2045,2973
2094,2974
2093,2975
2045,2976
1977,2977
1924,2978
1919,2979
1958,2980
2001,2981
2009,2982
1983,2983
1953,2984
1945,2985
1965,2986
2001,2987
2023,2988
2017,2989
1991,2990
1972,2991
1978,2992
2011,2993
2039,2994
2039,2995
2017,2996
1993,2997
1992,2998
2019,2999
2001,3000
2018,3001
2055,3002
2072,3003
2060,3004
2029,3005
2013,3006
2034,3007
2081,3008
2123,3009
2139,3010
2129,3011
2105,3012
2097,3013
2107,3014
2121,3015
2120,3016
2089,3017
2039,3018
2001,3019
1999,3020
2023,3021
2058,3022
2066,3023
2039,3024
1990,3025
1941,3026
1922,3027
1937,3028
1965,3029
2019,3030
2031,3031
2008,3032
1955,3033
1910,3034
1907,3035
1939,3036
1983,3037
2002,3038
1987,3039
1958,3040
1943,3041
1951,3042
1980,3043
2010,3044
2018,3045
1993,3046
1947,3047
1926,3048
1939,3049
1982,3050
2031,3051
2075,3052
2138,3053
2237,3054
2390,3055
2577,3056
2754,3057
2868,3058
2874,3059
1892,3060
1643,3061
1385,3062
1211,3063
1151,3064
1189,3065
1262,3066
1317,3067
1346,3068
1379,3069
1445,3070
1531,3071
1623,3072
1691,3073
1721,3074
1725,3075
1735,3076
1780,3077
1867,3078
1965,3079
2043,3080
2082,3081
2078,3082
2074,3083
2083,3084
2102,3085
2114,3086
2107,3087
2087,3088
2066,3089
2071,3090
2060,3091
2084,3092
2133,3093
2179,3094
2187,3095
2162,3096
2129,3097
2119,3098
2133,3099
2165,3100
2179,3101
2161,3102
2123,3103
2097,3104
2099,3105
2126,3106
2163,3107
2180,3108
2165,3109
2131,3110
2103,3111
2097,3112
2117,3113
2141,3114
2143,3115
2129,3116
2117,3117
2127,3118
2154,3119
2097,3120
2147,3121
2212,3122
2251,3123
2245,3124
2209,3125
2171,3126
2157,3127
2171,3128
2193,3129
2194,3130
2175,3131
2157,3132
2162,3133
2187,3134
2223,3135
2247,3136
2236,3137
2203,3138
2172,3139
2168,3140
2191,3141
2222,3142
2231,3143
2214,3144
2178,3145
2149,3146
2149,3147
2181,3148
2215,3149
2179,3150
2213,3151
2207,3152
2179,3153
2155,3154
2147,3155
2162,3156
2194,3157
2206,3158
2183,3159
2135,3160
2100,3161
2097,3162
2120,3163
2147,3164
2148,3165
2108,3166
2054,3167
2017,3168
2011,3169
2024,3170
2031,3171
2013,3172
1976,3173
1942,3174
1939,3175
1966,3176
2006,3177
2024,3178
2013,3179
2037,3180
2015,3181
1986,3182
1966,3183
1969,3184
1989,3185
1997,3186
1982,3187
1946,3188
1907,3189
1892,3190
1904,3191
1928,3192
1935,3193
1918,3194
1887,3195
1873,3196
1889,3197
1927,3198
1959,3199
1961,3200
1938,3201
1908,3202
1905,3203
1931,3204
1966,3205
1978,3206
1962,3207
1931,3208
1911,3209
1955,3210
1927,3211
1928,3212
1958,3213
1993,3214
2005,3215
1987,3216
1956,3217
1939,3218
1945,3219
1972,3220
1989,3221
1975,3222
1943,3223
1914,3224
1924,3225
1967,3226
2019,3227
2039,3228
2022,3229
1982,3230
1951,3231
1953,3232
1988,3233
2022,3234
2028,3235
2006,3236
1971,3237
1953,3238
1965,3239
1964,3240
1995,3241
2041,3242
2065,3243
2052,3244
2015,3245
1991,3246
1993,3247
2019,3248
2041,3249
2035,3250
2007,3251
1977,3252
1970,3253
1993,3254
2035,3255
2060,3256
2051,3257
2022,3258
2006,3259
2023,3260
2063,3261
2106,3262
2122,3263
2099,3264
2055,3265
2024,3266
2021,3267
2044,3268
2073,3269
2029,3270
2027,3271
1998,3272
1951,3273
1923,3274
1941,3275
1987,3276
2030,3277
2044,3278
2023,3279
1983,3280
1953,3281
1955,3282
1991,3283
2031,3284
2043,3285
2022,3286
1987,3287
1966,3288
1967,3289
1990,3290
2006,3291
2001,3292
1983,3293
1971,3294
1982,3295
2006,3296
2035,3297
2043,3298
2017,3299
2122,3300
2185,3301
2267,3302
2399,3303
2565,3304
2729,3305
2822,3306
2779,3307
2623,3308
2439,3309
2260,3310
2094,3311
1938,3312
1743,3313
1499,3314
1273,3315
1137,3316
1113,3317
1185,3318
1295,3319
1383,3320
1438,3321
1479,3322
1526,3323
1591,3324
1677,3325
1748,3326
1782,3327
1793,3328
1804,3329
2111,3330
2083,3331
2073,3332
2091,3333
2118,3334
2131,3335
2124,3336
2102,3337
2099,3338
2115,3339
2137,3340
2143,3341
2123,3342
2091,3343
2067,3344
2077,3345
2120,3346
2174,3347
2205,3348
2201,3349
2173,3350
2146,3351
2141,3352
2152,3353
2159,3354
2151,3355
2127,3356
2104,3357
2104,3358
2131,3359
2135,3360
2163,3361
2202,3362
2218,3363
2203,3364
2171,3365
2147,3366
2145,3367
2170,3368
2199,3369
2207,3370
2197,3371
2182,3372
2189,3373
2213,3374
2244,3375
2258,3376
2243,3377
2207,3378
2180,3379
2183,3380
2211,3381
2243,3382
2253,3383
2237,3384
2205,3385
2189,3386
2204,3387
2245,3388
2279,3389
2267,3390
2290,3391
2284,3392
2247,3393
2203,3394
2186,3395
2201,3396
2225,3397
2221,3398
2191,3399
2149,3400
2123,3401
2126,3402
2151,3403
2180,3404
2191,3405
2183,3406
2166,3407
2159,3408
2171,3409
2188,3410
2184,3411
2151,3412
2106,3413
2073,3414
2078,3415
2113,3416
2141,3417
2130,3418
2076,3419
2035,3420
2009,3421
1969,3422
1945,3423
1948,3424
1971,3425
1983,3426
1967,3427
1930,3428
1898,3429
1900,3430
1931,3431
1973,3432
1988,3433
1966,3434
1929,3435
1905,3436
1912,3437
1948,3438
1986,3439
1995,3440
1979,3441
1953,3442
1945,3443
1964,3444
2002,3445
2025,3446
2014,3447
1982,3448
1954,3449
1975,3450
1939,3451
1940,3452
1973,3453
2009,3454
2011,3455
1981,3456
1943,3457
1927,3458
1944,3459
1986,3460
2015,3461
2008,3462
1972,3463
1941,3464
1937,3465
1959,3466
1993,3467
2006,3468
1991,3469
1961,3470
1943,3471
1949,3472
1975,3473
1998,3474
1998,3475
1971,3476
1939,3477
1932,3478
1955,3479
1954,3480
1967,3481
1985,3482
1988,3483
1975,3484
1953,3485
1943,3486
1961,3487
1994,3488
2018,3489
2019,3490
2009,3491
2003,3492
2012,3493
2037,3494
2071,3495
2070,3496
2039,3497
1995,3498
1958,3499
1956,3500
1991,3501
2037,3502
2058,3503
2042,3504
2008,3505
1990,3506
2009,3507
2060,3508
2108,3509
2065,3510
2092,3511
2097,3512
2086,3513
2073,3514
2083,3515
2106,3516
2129,3517
2132,3518
2107,3519
2059,3520
2018,3521
2010,3522
2035,3523
2059,3524
2057,3525
2029,3526
1995,3527
1977,3528
1989,3529
2026,3530
2053,3531
2042,3532
2011,3533
1982,3534
1976,3535
1995,3536
2028,3537
2039,3538
2013,3539
2017,3540
1991,3541
1965,3542
1964,3543
1993,3544
2035,3545
2059,3546
2043,3547
2002,3548
1955,3549
1927,3550
1924,3551
1938,3552
1955,3553
1972,3554
2008,3555
2099,3556
2255,3557
2462,3558
2659,3559
2781,3560
2839,3561
2809,3562
2684,3563
2525,3564
2357,3565
2159,3566
1918,3567
1657,3568
1400,3569
1348,3570
1406,3571
1481,3572
1562,3573
1638,3574
1687,3575
1712,3576
1734,3577
1783,3578
1873,3579
1986,3580
2076,3581
2107,3582
2093,3583
2069,3584
2065,3585
2088,3586
2123,3587
2137,3588
2123,3589
2093,3590
2078,3591
2093,3592
2134,3593
2167,3594
2170,3595
2146,3596
2113,3597
2100,3598
2121,3599
2136,3600
2164,3601
2194,3602
2195,3603
2167,3604
2123,3605
2093,3606
2095,3607
2129,3608
2162,3609
2167,3610
2139,3611
2100,3612
2085,3613
2105,3614
2153,3615
2188,3616
2181,3617
2141,3618
2109,3619
2108,3620
2133,3621
2168,3622
2186,3623
2178,3624
2157,3625
2151,3626
2175,3627
2223,3628
2255,3629
2236,3630
2254,3631
2237,3632
2197,3633
2161,3634
2158,3635
2190,3636
2243,3637
2273,3638
2260,3639
2222,3640
2190,3641
2178,3642
2194,3643
2219,3644
2222,3645
2194,3646
2159,3647
2151,3648
2167,3649
2196,3650
2209,3651
2186,3652
2146,3653
2119,3654
2129,3655
2173,3656
2223,3657
2239,3658
2213,3659
2162,3660
2141,3661
2110,3662
2099,3663
2113,3664
2148,3665
2164,3666
2143,3667
2095,3668
2045,3669
2023,3670
2027,3671
2046,3672
2047,3673
2023,3674
1986,3675
1964,3676
1973,3677
2006,3678
2034,3679
2031,3680
2001,3681
1961,3682
1945,3683
1961,3684
1999,3685
2021,3686
2006,3687
1965,3688
1926,3689
1929,3690
1913,3691
1925,3692
1958,3693
1986,3694
1985,3695
1955,3696
1921,3697
1915,3698
1943,3699
1992,3700
2022,3701
2015,3702
1985,3703
1959,3704
1963,3705
1994,3706
2033,3707
2043,3708
2023,3709
1983,3710
1957,3711
1962,3712
1992,3713
2029,3714
2047,3715
2031,3716
1995,3717
1978,3718
1986,3719
1942,3720
1963,3721
1991,3722
1998,3723
1983,3724
1956,3725
1931,3726
1931,3727
1960,3728
1991,3729
1995,3730
1974,3731
1947,3732
1942,3733
1959,3734
1991,3735
2007,3736
1990,3737
1957,3738
1935,3739
1943,3740
1978,3741
2017,3742
2031,3743
2012,3744
1972,3745
1943,3746
1943,3747
1977,3748
2017,3749
2011,3750
2041,3751
2051,3752
2039,3753
2023,3754
2021,3755
2037,3756
2055,3757
2046,3758
2021,3759
1991,3760
1986,3761
2007,3762
2039,3763
2062,3764
2055,3765
2021,3766
1988,3767
1983,3768
2012,3769
2062,3770
2094,3771
2100,3772
2085,3773
2075,3774
2082,3775
2103,3776
2132,3777
2135,3778
2100,3779
2090,3780
2061,3781
2019,3782
1996,3783
2005,3784
2029,3785
2039,3786
2020,3787
1985,3788
1950,3789
1941,3790
1959,3791
1986,3792
1991,3793
1969,3794
1935,3795
1926,3796
1949,3797
2001,3798
2045,3799
2051,3800
2018,3801
1973,3802
1950,3803
1961,3804
1995,3805
2022,3806
2015,3807
1991,3808
1967,3809
1951,3810
1997,3811
2109,3812
2270,3813
2445,3814
2596,3815
2697,3816
2765,3817
2799,3818
2748,3819
2626,3820
2454,3821
2242,3822
2004,3823
1778,3824
1567,3825
1395,3826
1298,3827
1259,3828
1260,3829
1281,3830
1331,3831
1416,3832
1519,3833
1603,3834
1644,3835
1650,3836
1650,3837
1681,3838
1751,3839
2038,3840
2082,3841
2127,3842
2142,3843
2119,3844
2084,3845
2068,3846
2079,3847
2119,3848
2152,3849
2150,3850
2123,3851
2090,3852
2078,3853
2101,3854
2147,3855
2177,3856
2173,3857
2147,3858
2121,3859
2121,3860
2153,3861
2193,3862
2211,3863
2195,3864
2158,3865
2137,3866
2139,3867
2161,3868
2187,3869
2165,3870
2151,3871
2110,3872
2065,3873
2037,3874
2044,3875
2086,3876
2135,3877
2161,3878
2157,3879
2138,3880
2130,3881
2142,3882
2169,3883
2191,3884
2188,3885
2163,3886
2135,3887
2133,3888
2161,3889
2203,3890
2227,3891
2219,3892
2190,3893
2165,3894
2172,3895
2211,3896
2255,3897
2276,3898
2259,3899
2290,3900
2264,3901
2230,3902
2211,3903
2211,3904
2223,3905
2221,3906
2193,3907
2152,3908
2118,3909
2115,3910
2147,3911
2188,3912
2199,3913
2177,3914
2138,3915
2121,3916
2130,3917
2157,3918
2183,3919
2180,3920
2147,3921
2113,3922
2101,3923
2119,3924
2162,3925
2193,3926
2187,3927
2145,3928
2096,3929
1991,3930
1972,3931
1981,3932
2023,3933
2062,3934
2062,3935
2022,3936
1973,3937
1940,3938
1931,3939
1951,3940
1969,3941
1962,3942
1938,3943
1922,3944
1933,3945
1971,3946
2014,3947
2029,3948
2008,3949
1967,3950
1938,3951
1942,3952
1975,3953
2006,3954
2007,3955
1981,3956
1951,3957
1948,3958
1974,3959
1916,3960
1950,3961
1992,3962
2005,3963
1987,3964
1949,3965
1919,3966
1922,3967
1961,3968
2002,3969
2015,3970
2004,3971
1985,3972
1983,3973
1999,3974
2019,3975
2021,3976
1998,3977
1964,3978
1945,3979
1967,3980
2015,3981
2067,3982
2085,3983
2053,3984
1991,3985
1941,3986
1925,3987
1943,3988
1970,3989
1974,3990
1995,3991
1988,3992
1962,3993
1943,3994
1949,3995
1975,3996
1994,3997
1990,3998
1969,3999
1943,4000
1937,4001
1958,4002
2005,4003
2047,4004
2056,4005
2026,4006
1987,4007
1964,4008
1974,4009
2003,4010
2022,4011
2017,4012
1993,4013
1981,4014
1999,4015
2033,4016
2061,4017
2063,4018
2035,4019
2039,4020
2013,4021
1986,4022
1986,4023
2017,4024
2063,4025
2087,4026
2067,4027
2014,4028
1974,4029
1972,4030
2009,4031
2055,4032
2074,4033
2060,4034
2025,4035
2006,4036
2019,4037
2060,4038
2098,4039
2104,4040
2082,4041
2043,4042
2025,4043
2041,4044
2081,4045
2109,4046
2109,4047
2089,4048
2073,4049
2087,4050
2061,4051
2073,4052
2113,4053
2143,4054
2136,4055
2087,4056
2031,4057
2001,4058
1999,4059
2021,4060
2035,4061
2025,4062
1994,4063
1966,4064
1969,4065
1998,4066
2034,4067
2046,4068
2027,4069
1994,4070
1972,4071
1977,4072
2007,4073
2031,4074
2029,4075
2004,4076
1967,4077
1947,4078
1955,4079
1914,4080
1924,4081
1957,4082
1988,4083
2028,4084
2099,4085
2219,4086
2391,4087
2593,4088
2769,4089
2886,4090
2909,4091
2799,4092
2619,4093
2436,4094
2266,4095
2083,4096
1873,4097
1636,4098
1415,4099
1279,4100
1250,4101
1297,4102
1356,4103
1390,4104
1417,4105
1453,4106
1499,4107
1565,4108
1639,4109
1983,4110
2076,4111
2111,4112
2102,4113
2089,4114
2095,4115
2125,4116
2157,4117
2166,4118
2148,4119
2114,4120
2090,4121
2095,4122
2129,4123
2163,4124
2172,4125
2156,4126
2135,4127
2135,4128
2159,4129
2195,4130
2213,4131
2193,4132
2153,4133
2125,4134
2125,4135
2148,4136
2179,4137
2188,4138
2168,4139
2181,4140
2138,4141
2100,4142
2094,4143
2122,4144
2169,4145
2199,4146
2197,4147
2161,4148
2127,4149
2130,4150
2165,4151
2211,4152
2228,4153
2205,4154
2159,4155
2129,4156
2129,4157
2159,4158
2187,4159
2191,4160
2182,4161
2170,4162
2173,4163
2197,4164
2234,4165
2248,4166
2223,4167
2183,4168
2155,4169
2145,4170
2111,4171
2117,4172
2159,4173
2201,4174
2217,4175
2210,4176
2195,4177
2196,4178
2217,4179
2243,4180
2246,4181
2218,4182
2171,4183
2131,4184
2126,4185
2153,4186
2190,4187
2195,4188
2169,4189
2135,4190
2117,4191
2132,4192
2175,4193
2211,4194
2205,4195
2166,4196
2124,4197
2107,4198
2129,4199
2062,4200
2054,4201
2059,4202
2045,4203
2008,4204
1959,4205
1930,4206
1933,4207
1961,4208
1983,4209
1973,4210
1931,4211
1883,4212
1862,4213
1875,4214
1912,4215
1938,4216
1936,4217
1910,4218
1887,4219
1887,4220
1908,4221
1938,4222
1945,4223
1928,4224
1905,4225
1905,4226
1940,4227
1991,4228
2022,4229
1963,4230
1982,4231
1975,4232
1945,4233
1917,4234
1918,4235
1949,4236
1985,4237
1994,4238
1983,4239
1964,4240
1961,4241
1987,4242
2027,4243
2045,4244
2011,4245
1939,4246
1871,4247
1843,4248
1859,4249
1900,4250
1935,4251
1945,4252
1926,4253
1902,4254
1900,4255
1922,4256
1949,4257
1957,4258
1938,4259
1996,4260
1965,4261
1928,4262
1915,4263
1941,4264
1991,4265
2033,4266
2037,4267
2023,4268
2007,4269
2008,4270
2024,4271
2039,4272
2025,4273
1995,4274
1967,4275
1961,4276
1980,4277
2021,4278
2052,4279
2052,4280
2017,4281
1977,4282
1962,4283
1979,4284
2013,4285
2038,4286
2041,4287
2011,4288
1971,4289
1961,4290
1942,4291
1950,4292
1982,4293
2019,4294
2035,4295
2018,4296
1989,4297
1976,4298
1989,4299
2027,4300
2059,4301
2054,4302
2021,4303
1990,4304
1989,4305
2017,4306
2052,4307
2061,4308
2041,4309
2017,4310
2007,4311
2029,4312
2075,4313
2108,4314
2100,4315
2066,4316
2035,4317
2036,4318
2065,4319
2037,4320
2071,4321
2105,4322
2105,4323
2071,4324
2023,4325
2003,4326
2015,4327
2060,4328
2109,4329
2127,4330
2109,4331
2079,4332
2071,4333
2089,4334
2115,4335
2124,4336
2107,4337
2073,4338
2041,4339
2035,4340
2050,4341
2065,4342
2051,4343
2007,4344
1960,4345
1940,4346
1955,4347
1995,4348
2029,4349
2077,4350
2095,4351
2076,4352
2038,4353
2012,4354
2012,4355
2036,4356
2065,4357
2066,4358
2038,4359
2005,4360
1990,4361
1995,4362
2014,4363
2023,4364
2009,4365
2004,4366
2030,4367
2116,4368
2248,4369
2408,4370
2551,4371
2648,4372
2705,4373
2731,4374
2705,4375
2619,4376
2522,4377
2382,4378
2184,4379
1209,4380
1216,4381
1259,4382
1333,4383
1430,4384
1532,4385
1597,4386
1615,4387
1617,4388
1638,4389
1688,4390
1765,4391
1850,4392
1917,4393
1969,4394
2014,4395
2060,4396
2107,4397
2161,4398
2200,4399
2197,4400
2164,4401
2123,4402
2097,4403
2094,4404
2118,4405
2139,4406
2133,4407
2103,4408
2078,4409
2122,4410
2110,4411
2121,4412
2158,4413
2181,4414
2169,4415
2135,4416
2101,4417
2089,4418
2107,4419
2147,4420
2171,4421
2162,4422
2129,4423
2103,4424
2103,4425
2126,4426
2147,4427
2141,4428
2119,4429
2094,4430
2095,4431
2123,4432
2161,4433
2183,4434
2175,4435
2145,4436
2115,4437
2117,4438
2156,4439
2169,4440
2182,4441
2205,4442
2211,4443
2195,4444
2164,4445
2153,4446
2164,4447
2201,4448
2235,4449
2239,4450
2212,4451
2170,4452
2154,4453
2170,4454
2203,4455
2221,4456
2205,4457
2167,4458
2137,4459
2133,4460
2158,4461
2193,4462
2209,4463
2198,4464
2173,4465
2166,4466
2181,4467
2210,4468
2226,4469
2141,4470
2173,4471
2175,4472
2157,4473
2139,4474
2141,4475
2153,4476
2158,4477
2139,4478
2099,4479
2052,4480
2019,4481
2015,4482
2033,4483
2045,4484
2031,4485
1996,4486
1956,4487
1942,4488
1961,4489
2003,4490
2023,4491
2010,4492
1973,4493
1938,4494
1924,4495
1935,4496
1958,4497
1965,4498
1950,4499
2013,4500
1988,4501
1959,4502
1955,4503
1977,4504
2013,4505
2028,4506
2011,4507
1978,4508
1956,4509
1957,4510
1983,4511
2015,4512
2015,4513
1982,4514
1937,4515
1905,4516
1902,4517
1932,4518
1960,4519
1962,4520
1938,4521
1909,4522
1901,4523
1917,4524
1949,4525
1963,4526
1954,4527
1927,4528
1903,4529
1926,4530
1930,4531
1957,4532
1996,4533
2020,4534
2004,4535
1963,4536
1919,4537
1907,4538
1932,4539
1978,4540
2002,4541
1990,4542
1957,4543
1931,4544
1935,4545
1968,4546
2013,4547
2039,4548
2031,4549
2001,4550
1976,4551
1972,4552
1993,4553
2012,4554
2011,4555
1993,4556
1971,4557
1970,4558
1994,4559
1965,4560
2005,4561
2047,4562
2063,4563
2050,4564
2018,4565
1997,4566
2002,4567
2029,4568
2052,4569
2044,4570
2018,4571
1990,4572
1987,4573
2011,4574
2050,4575
2076,4576
2069,4577
2029,4578
1995,4579
1986,4580
2005,4581
2029,4582
2030,4583
2013,4584
1988,4585
1978,4586
1991,4587
2031,4588
2071,4589
2057,4590
2074,4591
2060,4592
2023,4593
1995,4594
1995,4595
2024,4596
2057,4597
2063,4598
2038,4599
2012,4600
2011,4601
2044,4602
2094,4603
2122,4604
2109,4605
2068,4606
2033,4607
2037,4608
2073,4609
2116,4610
2138,4611
2129,4612
2089,4613
2046,4614
2033,4615
2058,4616
2099,4617
2116,4618
2099,4619
2098,4620
2043,4621
1989,4622
1970,4623
1990,4624
2028,4625
2050,4626
2036,4627
2005,4628
1981,4629
1988,4630
2015,4631
2051,4632
2060,4633
2031,4634
1990,4635
1973,4636
1991,4637
2029,4638
2061,4639
2059,4640
2029,4641
2003,4642
2002,4643
2027,4644
2066,4645
2078,4646
2041,4647
1971,4648
1907,4649
2318,4650
2470,4651
2637,4652
2788,4653
2877,4654
2822,4655
2645,4656
2438,4657
2241,4658
2067,4659
1905,4660
1715,4661
1482,4662
1272,4663
1156,4664
1157,4665
1251,4666
1379,4667
1479,4668
1537,4669
1562,4670
1577,4671
1614,4672
1688,4673
1769,4674
1822,4675
1851,4676
1880,4677
1930,4678
2007,4679
2114,4680
2146,4681
2178,4682
2191,4683
2171,4684
2123,4685
2085,4686
2081,4687
2110,4688
2143,4689
2147,4690
2124,4691
2096,4692
2091,4693
2116,4694
2161,4695
2196,4696
2194,4697
2167,4698
2141,4699
2138,4700
2161,4701
2191,4702
2191,4703
2158,4704
2123,4705
2114,4706
2137,4707
2181,4708
2212,4709
2162,4710
2189,4711
2189,4712
2171,4713
2155,4714
2161,4715
2203,4716
2248,4717
2261,4718
2243,4719
2207,4720
2181,4721
2174,4722
2189,4723
2198,4724
2183,4725
2152,4726
2125,4727
2122,4728
2149,4729
2194,4730
2221,4731
2222,4732
2203,4733
2183,4734
2186,4735
2205,4736
2223,4737
2226,4738
2204,4739
2230,4740
2214,4741
2191,4742
2183,4743
2198,4744
2227,4745
2237,4746
2217,4747
2186,4748
2167,4749
2172,4750
2197,4751
2215,4752
2206,4753
2175,4754
2136,4755
2115,4756
2123,4757
2155,4758
2186,4759
2189,4760
2161,4761
2123,4762
2107,4763
2122,4764
2149,4765
2159,4766
2136,4767
2092,4768
2055,4769
1964,4770
1934,4771
1930,4772
1953,4773
1980,4774
1983,4775
1965,4776
1947,4777
1955,4778
1987,4779
2020,4780
2027,4781
1999,4782
1951,4783
1917,4784
1914,4785
1942,4786
1983,4787
2005,4788
1999,4789
1980,4790
1979,4791
2005,4792
2051,4793
2076,4794
2059,4795
2015,4796
1971,4797
1954,4798
1969,4799
1946,4800
1963,4801
1991,4802
1995,4803
1969,4804
1933,4805
1916,4806
1933,4807
1975,4808
2011,4809
2014,4810
1997,4811
1975,4812
1972,4813
1995,4814
2035,4815
2052,4816
2032,4817
1990,4818
1956,4819
1957,4820
1988,4821
2025,4822
2037,4823
2020,4824
1991,4825
1977,4826
1988,4827
2014,4828
2030,4829
2009,4830
2034,4831
2025,4832
1987,4833
1949,4834
1948,4835
1981,4836
2020,4837
2028,4838
2005,4839
1965,4840
1938,4841
1937,4842
1963,4843
1990,4844
1993,4845
1974,4846
1953,4847
1953,4848
1979,4849
2019,4850
2034,4851
2018,4852
1981,4853
1949,4854
1946,4855
1977,4856
2019,4857
2038,4858
2033,4859
2047,4860
2022,4861
1996,4862
1995,4863
2015,4864
2045,4865
2051,4866
2020,4867
1974,4868
1941,4869
1945,4870
1983,4871
2028,4872
2043,4873
2024,4874
1995,4875
1983,4876
2003,4877
2037,4878
2059,4879
2045,4880
2011,4881
1976,4882
1972,4883
1998,4884
2041,4885
2068,4886
2066,4887
2041,4888
2020,4889
2021,4890
1999,4891
2009,4892
2053,4893
2098,4894
2110,4895
2087,4896
2044,4897
2022,4898
2029,4899
2062,4900
2089,4901
2093,4902
2081,4903
2066,4904
2069,4905
2093,4906
2114,4907
2110,4908
2085,4909
2053,4910
2034,4911
2043,4912
2077,4913
2097,4914
2077,4915
2026,4916
1969,4917
1941,4918
1948,4919
1969,4920
2005,4921
2041,4922
2053,4923
2034,4924
2003,4925
1987,4926
1996,4927
2023,4928
2047,4929
2046,4930
2020,4931
1987,4932
1975,4933
1991,4934
2025,4935
2043,4936
2023,4937
1972,4938
1919,4939
1893,4940
1914,4941
1974,4942
2043,4943
2117,4944
2202,4945
2327,4946
2509,4947
2714,4948
2877,4949
2115,4950
1934,4951
1729,4952
1487,4953
1282,4954
1177,4955
1185,4956
1260,4957
1336,4958
1394,4959
1442,4960
1497,4961
1557,4962
1631,4963
1699,4964
1739,4965
1758,4966
1779,4967
1833,4968
1919,4969
2021,4970
2099,4971
2134,4972
2126,4973
2101,4974
2090,4975
2101,4976
2121,4977
2123,4978
2107,4979
2123,4980
2091,4981
2066,4982
2070,4983
2101,4984
2147,4985
2173,4986
2166,4987
2135,4988
2110,4989
2114,4990
2145,4991
2175,4992
2183,4993
2170,4994
2141,4995
2121,4996
2121,4997
2143,4998
2166,4999
2163,5000
2136,5001
2105,5002
2093,5003
2110,5004
2148,5005
2167,5006
2159,5007
2135,5008
2116,5009
2101,5010
2117,5011
2147,5012
2181,5013
2202,5014
2210,5015
2197,5016
2179,5017
2173,5018
2191,5019
2223,5020
2237,5021
2223,5022
2195,5023
2181,5024
2201,5025
2246,5026
2290,5027
2292,5028
2254,5029
2203,5030
2173,5031
2172,5032
2197,5033
2217,5034
2217,5035
2201,5036
2180,5037
2174,5038
2192,5039
2148,5040
2189,5041
2231,5042
2238,5043
2209,5044
2165,5045
2142,5046
2155,5047
2186,5048
2202,5049
2185,5050
2145,5051
2109,5052
2098,5053
2117,5054
2153,5055
2164,5056
2133,5057
2074,5058
2025,5059
2012,5060
2029,5061
2051,5062
2036,5063
1999,5064
1961,5065
1946,5066
1958,5067
1991,5068
2015,5069
1975,5070
1992,5071
1985,5072
1962,5073
1948,5074
1957,5075
1989,5076
2019,5077
2019,5078
1986,5079
1942,5080
1917,5081
1927,5082
1966,5083
2006,5084
2017,5085
1993,5086
1959,5087
1954,5088
1976,5089
2009,5090
2024,5091
2011,5092
1978,5093
1950,5094
1951,5095
1986,5096
2028,5097
2043,5098
2027,5099
2032,5100
2017,5101
1996,5102
1979,5103
1969,5104
1965,5105
1947,5106
1913,5107
1883,5108
1883,5109
1915,5110
1967,5111
2015,5112
2025,5113
1991,5114
1943,5115
1913,5116
1913,5117
1942,5118
1971,5119
1977,5120
1963,5121
1942,5122
1947,5123
1980,5124
2022,5125
2043,5126
2039,5127
2014,5128
1991,5129
1983,5130
1970,5131
1987,5132
2023,5133
2055,5134
2062,5135
2052,5136
2039,5137
2043,5138
2058,5139
2070,5140
2050,5141
2002,5142
1948,5143
1916,5144
1926,5145
1970,5146
2023,5147
2042,5148
2026,5149
1993,5150
1975,5151
1989,5152
2030,5153
2068,5154
2071,5155
2036,5156
1999,5157
1985,5158
1993,5159
1977,5160
2025,5161
2077,5162
2097,5163
2083,5164
2046,5165
2017,5166
2007,5167
2019,5168
2029,5169
2023,5170
2013,5171
2019,5172
2052,5173
2095,5174
2126,5175
2115,5176
2053,5177
1966,5178
1905,5179
1901,5180
1953,5181
2026,5182
2075,5183
2086,5184
2065,5185
2040,5186
2031,5187
2045,5188
2067,5189
2129,5190
2121,5191
2075,5192
2009,5193
1958,5194
1953,5195
1988,5196
2038,5197
2067,5198
2059,5199
2033,5200
2031,5201
2066,5202
2125,5203
2171,5204
2174,5205
2139,5206
2091,5207
2063,5208
2063,5209
2089,5210
2106,5211
2093,5212
2058,5213
2026,5214
2012,5215
2026,5216
2054,5217
2061,5218
2037,5219
1993,5220
1969,5221
1954,5222
1989,5223
2057,5224
2123,5225
2145,5226
2109,5227
2035,5228
1975,5229
1962,5230
1993,5231
2037,5232
2055,5233
2034,5234
1999,5235
1972,5236
1971,5237
1982,5238
1979,5239
1953,5240
1922,5241
1921,5242
1981,5243
2110,5244
2286,5245
2475,5246
2645,5247
2763,5248
2837,5249
2119,5250
1950,5251
1775,5252
1588,5253
1423,5254
1293,5255
1212,5256
1206,5257
1268,5258
1389,5259
1528,5260
1627,5261
1662,5262
1659,5263
1652,5264
1669,5265
1727,5266
1812,5267
1885,5268
1934,5269
1975,5270
2023,5271
2072,5272
2117,5273
2145,5274
2147,5275
2138,5276
2134,5277
2150,5278
2180,5279
2155,5280
2186,5281
2221,5282
2231,5283
2219,5284
2199,5285
2190,5286
2206,5287
2235,5288
2247,5289
2233,5290
2199,5291
2164,5292
2159,5293
2181,5294
2210,5295
2228,5296
2225,5297
2194,5298
2166,5299
2161,5300
2179,5301
2207,5302
2203,5303
2167,5304
2122,5305
2101,5306
2111,5307
2148,5308
2179,5309
2226,5310
2247,5311
2226,5312
2178,5313
2139,5314
2133,5315
2158,5316
2191,5317
2200,5318
2181,5319
2153,5320
2141,5321
2162,5322
2207,5323
2230,5324
2211,5325
2169,5326
2138,5327
2147,5328
2190,5329
2239,5330
2261,5331
2242,5332
2198,5333
2166,5334
2167,5335
2201,5336
2241,5337
2251,5338
2225,5339
2242,5340
2217,5341
2183,5342
2167,5343
2185,5344
2219,5345
2230,5346
2207,5347
2167,5348
2143,5349
2151,5350
2180,5351
2206,5352
2211,5353
2182,5354
2135,5355
2102,5356
2086,5357
2078,5358
2082,5359
2065,5360
2029,5361
2001,5362
1997,5363
2015,5364
2037,5365
2031,5366
1999,5367
1954,5368
1923,5369
1929,5370
1906,5371
1917,5372
1954,5373
1986,5374
1994,5375
1988,5376
1991,5377
2009,5378
2033,5379
2066,5380
2069,5381
2036,5382
1988,5383
1959,5384
1974,5385
2031,5386
2098,5387
2131,5388
2118,5389
2071,5390
2019,5391
1983,5392
1969,5393
1947,5394
1912,5395
1877,5396
1851,5397
1868,5398
1915,5399
1881,5400
1915,5401
1963,5402
1985,5403
1969,5404
1931,5405
1899,5406
1893,5407
1913,5408
1936,5409
1943,5410
1931,5411
1914,5412
1911,5413
1933,5414
1971,5415
1993,5416
1983,5417
1946,5418
1909,5419
1893,5420
1895,5421
1909,5422
1917,5423
1917,5424
1908,5425
1913,5426
1938,5427
1979,5428
2015,5429
2023,5430
2030,5431
2015,5432
1995,5433
1988,5434
1996,5435
2014,5436
2030,5437
2022,5438
1991,5439
1949,5440
1927,5441
1945,5442
1990,5443
2021,5444
2014,5445
1982,5446
1947,5447
1940,5448
1965,5449
1998,5450
2018,5451
2011,5452
1983,5453
1961,5454
1963,5455
1989,5456
2021,5457
2031,5458
2021,5459
2058,5460
2035,5461
2014,5462
2022,5463
2062,5464
2110,5465
2135,5466
2124,5467
2087,5468
2061,5469
2063,5470
2089,5471
2116,5472
2122,5473
2103,5474
2072,5475
2055,5476
2061,5477
2092,5478
2123,5479
2131,5480
2115,5481
2094,5482
2089,5483
2103,5484
2127,5485
2138,5486
2133,5487
2172,5488
2223,5489
2001,5490
1963,5491
1971,5492
2015,5493
2053,5494
2054,5495
2022,5496
1982,5497
1966,5498
1977,5499
2003,5500
2011,5501
1993,5502
1951,5503
1914,5504
1905,5505
1921,5506
1943,5507
1938,5508
1906,5509
1869,5510
1857,5511
1881,5512
1937,5513
1985,5514
2006,5515
2010,5516
2012,5517
2027,5518
2055,5519
1880,5520
1956,5521
2042,5522
2085,5523
2066,5524
2010,5525
1967,5526
1947,5527
1955,5528
1970,5529
1958,5530
1917,5531
1879,5532
1873,5533
1911,5534
1987,5535
2063,5536
2133,5537
2203,5538
2303,5539
2441,5540
2609,5541
2759,5542
2813,5543
2733,5544
2573,5545
2410,5546
2255,5547
2105,5548
1944,5549
1323,5550
1429,5551
1500,5552
1542,5553
1575,5554
1615,5555
1663,5556
1731,5557
1802,5558
1864,5559
1910,5560
1963,5561
2028,5562
2107,5563
2189,5564
2230,5565
2226,5566
2197,5567
2175,5568
2183,5569
2200,5570
2199,5571
2174,5572
2133,5573
2107,5574
2111,5575
2142,5576
2177,5577
2193,5578
2185,5579
2094,5580
2042,5581
2003,5582
2009,5583
2057,5584
2111,5585
2136,5586
2111,5587
2047,5588
1981,5589
1943,5590
1941,5591
1959,5592
1967,5593
1950,5594
1924,5595
1916,5596
1933,5597
1967,5598
2001,5599
1999,5600
1965,5601
1910,5602
1874,5603
1871,5604
1907,5605
1945,5606
1974,5607
1981,5608
1990,5609
2101,5610
2114,5611
2151,5612
2205,5613
2247,5614
2246,5615
2203,5616
2163,5617
2157,5618
2186,5619
2231,5620
2265,5621
2268,5622
2253,5623
2247,5624
2270,5625
2319,5626
2371,5627
2391,5628
2366,5629
2318,5630
2284,5631
2281,5632
2301,5633
2321,5634
2318,5635
2312,5636
2319,5637
2349,5638
2389,5639
2201,5640
2220,5641
2239,5642
2227,5643
2185,5644
2131,5645
2101,5646
2103,5647
2119,5648
2123,5649
2094,5650
2036,5651
1970,5652
1931,5653
1923,5654
1928,5655
1917,5656
1878,5657
1830,5658
1800,5659
1798,5660
1828,5661
1861,5662
1863,5663
1836,5664
1803,5665
1790,5666
1803,5667
1835,5668
1865,5669
1954,5670
2017,5671
2054,5672
2053,5673
2019,5674
1979,5675
1953,5676
1927,5677
1889,5678
1851,5679
1828,5680
1837,5681
1878,5682
1935,5683
1978,5684
1986,5685
1966,5686
1943,5687
1938,5688
1954,5689
1990,5690
2009,5691
1991,5692
1956,5693
1939,5694
1946,5695
1977,5696
2014,5697
2033,5698
2024,5699
2046,5700
2013,5701
1979,5702
1965,5703
1981,5704
2015,5705
2040,5706
2035,5707
2013,5708
1995,5709
1996,5710
2021,5711
2054,5712
2056,5713
2029,5714
1991,5715
1975,5716
1999,5717
2047,5718
2079,5719
2065,5720
2015,5721
1967,5722
1955,5723
1981,5724
2026,5725
2045,5726
2024,5727
1975,5728
1934,5729
2015,5730
2011,5731
2022,5732
2047,5733
2065,5734
2055,5735
2020,5736
1987,5737
1987,5738
2022,5739
2073,5740
2105,5741
2113,5742
2109,5743
2109,5744
2111,5745
2116,5746
2108,5747
2063,5748
1990,5749
1934,5750
1923,5751
1957,5752
2017,5753
2063,5754
2074,5755
2055,5756
2025,5757
2019,5758
2038,5759
1996,5760
2042,5761
2092,5762
2108,5763
2091,5764
2066,5765
2063,5766
2092,5767
2140,5768
2179,5769
2180,5770
2146,5771
2109,5772
2099,5773
2120,5774
2155,5775
2166,5776
2145,5777
2101,5778
2056,5779
2039,5780
2057,5781
2085,5782
2091,5783
2066,5784
2032,5785
2025,5786
2047,5787
2089,5788
2116,5789
2088,5790
2105,5791
2085,5792
2041,5793
2001,5794
1987,5795
2006,5796
2037,5797
2047,5798
2033,5799
2010,5800
2007,5801
2029,5802
2066,5803
2085,5804
2077,5805
2046,5806
2015,5807
2008,5808
2026,5809
2062,5810
2094,5811
2115,5812
2117,5813
2119,5814
2135,5815
2160,5816
2169,5817
2127,5818
2033,5819
1886,5820
1932,5821
2011,5822
2142,5823
2311,5824
2500,5825
2660,5826
2763,5827
2802,5828
2758,5829
2631,5830
2487,5831
2327,5832
2129,5833
1901,5834
1653,5835
1415,5836
1247,5837
1193,5838
1215,5839
1265,5840
1313,5841
1367,5842
1445,5843
1538,5844
1619,5845
1668,5846
1691,5847
1703,5848
1727,5849
2020,5850
2009,5851
2027,5852
2068,5853
2100,5854
2101,5855
2078,5856
2057,5857
2061,5858
2094,5859
2137,5860
2162,5861
2153,5862
2123,5863
2101,5864
2113,5865
2149,5866
2186,5867
2196,5868
2175,5869
2142,5870
2127,5871
2132,5872
2158,5873
2182,5874
2183,5875
2161,5876
2137,5877
2135,5878
2159,5879
2133,5880
2161,5881
2199,5882
2217,5883
2203,5884
2172,5885
2153,5886
2162,5887
2188,5888
2203,5889
2188,5890
2152,5891
2123,5892
2132,5893
2171,5894
2221,5895
2241,5896
2227,5897
2198,5898
2187,5899
2206,5900
2249,5901
2290,5902
2297,5903
2267,5904
2227,5905
2202,5906
2211,5907
2249,5908
2281,5909
2265,5910
2290,5911
2268,5912
2211,5913
2167,5914
2153,5915
2163,5916
2177,5917
2167,5918
2134,5919
2099,5920
2085,5921
2103,5922
2152,5923
2194,5924
2198,5925
2171,5926
2141,5927
2133,5928
2146,5929
2169,5930
2174,5931
2153,5932
2119,5933
2099,5934
2107,5935
2139,5936
2173,5937
2181,5938
2155,5939
2178,5940
2139,5941
2099,5942
2081,5943
2091,5944
2110,5945
2102,5946
2054,5947
1985,5948
1933,5949
1913,5950
1929,5951
1951,5952
1953,5953
1917,5954
1852,5955
1798,5956
1777,5957
1811,5958
1861,5959
1897,5960
1912,5961
1917,5962
1931,5963
1954,5964
1981,5965
1988,5966
1969,5967
1943,5968
1930,5969
1951,5970
1935,5971
1951,5972
1991,5973
2029,5974
2037,5975
2014,5976
1985,5977
1979,5978
1998,5979
2031,5980
2044,5981
2023,5982
1980,5983
1943,5984
1940,5985
1970,5986
2001,5987
2005,5988
1985,5989
1947,5990
1926,5991
1938,5992
1977,5993
2006,5994
2002,5995
1972,5996
1943,5997
1943,5998
1977,5999
1957,6000
1992,6001
2030,6002
2047,6003
2040,6004
2011,6005
1991,6006
1991,6007
2015,6008
2038,6009
2039,6010
2013,6011
1983,6012
1975,6013
1995,6014
2031,6015
2055,6016
2052,6017
2031,6018
2011,6019
2010,6020
2030,6021
2045,6022
2035,6023
2000,6024
1959,6025
1941,6026
1955,6027
1990,6028
2021,6029
1985,6030
2003,6031
1992,6032
1966,6033
1954,6034
1965,6035
2001,6036
2041,6037
2055,6038
2037,6039
2011,6040
2009,6041
2042,6042
2091,6043
2117,6044
2099,6045
2047,6046
1997,6047
1971,6048
1971,6049
1996,6050
2013,6051
2018,6052
2018,6053
2033,6054
2067,6055
2104,6056
2117,6057
2095,6058
2054,6059
2104,6060
2074,6061
2040,6062
2035,6063
2065,6064
2107,6065
2126,6066
2107,6067
2063,6068
2032,6069
2037,6070
2075,6071
2109,6072
2114,6073
2081,6074
2040,6075
2029,6076
2052,6077
2090,6078
2110,6079
2093,6080
2043,6081
1992,6082
1969,6083
1985,6084
2028,6085
2047,6086
2037,6087
2005,6088
1974,6089
1996,6090
1986,6091
2001,6092
2029,6093
2043,6094
2027,6095
1982,6096
1935,6097
1913,6098
1926,6099
1954,6100
1963,6101
1937,6102
1891,6103
1869,6104
1900,6105
1988,6106
2111,6107
2239,6108
2373,6109
2518,6110
2679,6111
2835,6112
2957,6113
2955,6114
2791,6115
2543,6116
2292,6117
2081,6118
1906,6119
1194,6120
1276,6121
1383,6122
1473,6123
1523,6124
1542,6125
1569,6126
1631,6127
1724,6128
1809,6129
1859,6130
1891,6131
1924,6132
1981,6133
2053,6134
2115,6135
2142,6136
2134,6137
2103,6138
2079,6139
2079,6140
2103,6141
2131,6142
2138,6143
2125,6144
2107,6145
2105,6146
2125,6147
2160,6148
2183,6149
2165,6150
2183,6151
2166,6152
2129,6153
2105,6154
2117,6155
2159,6156
2202,6157
2213,6158
2187,6159
2147,6160
2123,6161
2127,6162
2159,6163
2182,6164
2173,6165
2147,6166
2123,6167
2121,6168
2141,6169
2170,6170
2183,6171
2183,6172
2162,6173
2134,6174
2125,6175
2147,6176
2183,6177
2196,6178
2183,6179
2234,6180
2216,6181
2192,6182
2184,6183
2203,6184
2239,6185
2257,6186
2247,6187
2226,6188
2217,6189
2233,6190
2270,6191
2308,6192
2319,6193
2310,6194
2290,6195
2280,6196
2293,6197
2325,6198
2339,6199
2309,6200
2237,6201
2170,6202
2139,6203
2151,6204
2187,6205
2207,6206
2205,6207
2186,6208
2177,6209
2220,6210
2193,6211
2191,6212
2209,6213
2215,6214
2199,6215
2172,6216
2145,6217
2134,6218
2143,6219
2159,6220
2155,6221
2125,6222
2082,6223
2054,6224
2051,6225
2070,6226
2095,6227
2089,6228
2059,6229
2021,6230
2002,6231
2010,6232
2044,6233
2071,6234
2064,6235
2026,6236
1991,6237
1989,6238
2015,6239
2034,6240
2061,6241
2083,6242
2081,6243
2059,6244
2027,6245
2007,6246
2013,6247
2047,6248
2077,6249
2078,6250
2059,6251
2035,6252
2031,6253
2043,6254
2069,6255
2079,6256
2065,6257
2035,6258
2024,6259
2055,6260
2109,6261
2162,6262
2163,6263
2109,6264
2036,6265
1987,6266
1974,6267
1991,6268
1994,6269
1931,6270
1925,6271
1894,6272
1847,6273
1819,6274
1830,6275
1870,6276
1907,6277
1922,6278
1918,6279
1899,6280
1893,6281
1906,6282
1932,6283
1956,6284
1955,6285
1923,6286
1889,6287
1879,6288
1887,6289
1897,6290
1908,6291
1909,6292
1903,6293
1894,6294
1899,6295
1930,6296
1972,6297
1995,6298
1983,6299
1894,6300
1846,6301
1817,6302
1831,6303
1881,6304
1947,6305
1998,6306
1995,6307
1949,6308
1913,6309
1899,6310
1907,6311
1909,6312
1887,6313
1838,6314
1794,6315
1796,6316
1848,6317
1927,6318
2006,6319
2042,6320
2044,6321
2030,6322
2020,6323
2019,6324
2023,6325
2004,6326
1958,6327
1905,6328
1873,6329
1980,6330
1966,6331
1977,6332
2018,6333
2062,6334
2077,6335
2056,6336
2012,6337
1992,6338
2014,6339
2061,6340
2094,6341
2093,6342
2074,6343
2067,6344
2091,6345
2147,6346
2209,6347
2234,6348
2210,6349
2166,6350
2147,6351
2161,6352
2200,6353
2226,6354
2212,6355
2169,6356
2109,6357
2063,6358
2043,6359
1986,6360
2014,6361
2047,6362
2041,6363
1985,6364
1901,6365
1829,6366
1797,6367
1812,6368
1874,6369
1915,6370
1922,6371
1899,6372
1867,6373
1839,6374
1823,6375
1839,6376
1866,6377
1901,6378
1925,6379
1930,6380
1900,6381
1870,6382
1873,6383
1908,6384
1959,6385
1988,6386
2007,6387
2003,6388
2025,6389
2214,6390
2350,6391
2547,6392
2787,6393
3031,6394
3245,6395
3405,6396
3537,6397
3595,6398
3549,6399
3462,6400
3331,6401
3163,6402
2955,6403
2771,6404
2578,6405
2390,6406
2259,6407
2222,6408
2252,6409
2293,6410
2329,6411
2341,6412
2341,6413
2307,6414
2265,6415
2228,6416
2247,6417
2329,6418
2417,6419
3068,6420
3195,6421
3258,6422
3290,6423
3283,6424
3257,6425
3265,6426
3305,6427
3378,6428
3447,6429
3491,6430
3490,6431
3453,6432
3391,6433
3305,6434
3217,6435
3099,6436
2973,6437
2862,6438
2855,6439
2923,6440
3026,6441
3069,6442
3033,6443
2895,6444
2729,6445
2623,6446
2598,6447
2615,6448
2611,6449
2308,6450
2254,6451
2238,6452
2207,6453
2207,6454
2211,6455
2214,6456
2217,6457
2184,6458
2118,6459
2005,6460
1927,6461
1867,6462
1843,6463
1805,6464
1765,6465
1741,6466
1756,6467
1834,6468
1933,6469
2020,6470
2062,6471
2074,6472
2065,6473
2092,6474
2115,6475
2118,6476
2093,6477
2061,6478
2023,6479
1862,6480
1782,6481
1695,6482
1645,6483
1634,6484
1667,6485
1730,6486
1755,6487
1710,6488
1675,6489
1616,6490
1556,6491
1501,6492
1433,6493
1374,6494
1381,6495
1462,6496
1515,6497
1571,6498
1559,6499
1482,6500
1357,6501
1281,6502
1270,6503
1281,6504
1305,6505
1300,6506
1261,6507
1188,6508
1155,6509
1229,6510
1229,6511
1240,6512
1267,6513
1278,6514
1282,6515
1276,6516
1282,6517
1322,6518
1353,6519
1361,6520
1333,6521
1302,6522
1298,6523
1353,6524
1420,6525
1465,6526
1467,6527
1441,6528
1396,6529
1356,6530
1363,6531
1377,6532
1388,6533
1371,6534
1338,6535
1271,6536
1211,6537
1195,6538
1213,6539
1127,6540
1154,6541
1159,6542
1134,6543
1090,6544
1053,6545
1077,6546
1126,6547
1195,6548
1259,6549
1311,6550
1336,6551
1361,6552
1411,6553
1454,6554
1477,6555
1474,6556
1478,6557
1473,6558
1480,6559
1490,6560
1482,6561
1464,6562
1438,6563
1400,6564
1357,6565
1371,6566
1412,6567
1459,6568
1470,6569
1595,6570
1641,6571
1661,6572
1641,6573
1637,6574
1643,6575
1632,6576
1606,6577
1550,6578
1467,6579
1397,6580
1391,6581
1396,6582
1401,6583
1377,6584
1327,6585
1257,6586
1206,6587
1201,6588
1221,6589
1244,6590
1273,6591
1315,6592
1355,6593
1435,6594
1529,6595
1604,6596
1631,6597
1615,6598
1575,6599
1614,6600
1578,6601
1519,6602
1487,6603
1483,6604
1499,6605
1501,6606
1466,6607
1379,6608
1318,6609
1315,6610
1410,6611
1544,6612
1666,6613
1740,6614
1770,6615
1846,6616
1946,6617
2055,6618
2102,6619
2075,6620
1973,6621
1874,6622
1829,6623
1808,6624
1787,6625
1753,6626
1710,6627
1655,6628
1629,6629
1387,6630
1400,6631
1441,6632
1477,6633
1461,6634
1409,6635
1313,6636
1223,6637
1181,6638
1182,6639
1209,6640
1245,6641
1310,6642
1374,6643
1467,6644
1560,6645
1654,6646
1837,6647
1996,6648
2044,6649
1988,6650
1990,6651
1990,6652
1967,6653
1929,6654
1912,6655
1915,6656
1958,6657
2046,6658
2159,6659
3042,6660
3286,6661
3402,6662
3345,6663
3196,6664
3005,6665
2810,6666
2593,6667
2401,6668
2190,6669
1996,6670
1865,6671
1854,6672
1953,6673
2124,6674
2291,6675
2399,6676
2489,6677
2577,6678
2707,6679
2855,6680
3005,6681
3129,6682
3215,6683
3281,6684
3334,6685
3414,6686
3517,6687
3626,6688
3692,6689
3967,6690
3974,6691
3882,6692
3697,6693
3447,6694
3180,6695
2991,6696
2860,6697
2779,6698
2757,6699
2782,6700
2855,6701
2935,6702
3028,6703
3113,6704
3165,6705
3178,6706
3195,6707
3202,6708
3179,6709
3138,6710
3091,6711
3070,6712
3069,6713
3154,6714
3292,6715
3449,6716
3582,6717
3677,6718
3687,6719
3508,6720
3406,6721
3307,6722
3235,6723
3146,6724
3015,6725
2830,6726
2646,6727
2469,6728
2363,6729
2303,6730
2275,6731
2259,6732
2221,6733
2158,6734
2078,6735
2035,6736
2003,6737
1969,6738
1906,6739
1818,6740
1697,6741
1593,6742
1532,6743
1501,6744
1475,6745
1423,6746
1377,6747
1323,6748
1303,6749
1406,6750
1470,6751
1566,6752
1683,6753
1773,6754
1816,6755
1784,6756
1748,6757
1729,6758
1689,6759
1617,6760
1522,6761
1402,6762
1270,6763
1186,6764
1117,6765
1041,6766
982,6767
953,6768
932,6769
868,6770
796,6771
696,6772
588,6773
469,6774
407,6775
447,6776
548,6777
654,6778
730,6779
1319,6780
1497,6781
1643,6782
1703,6783
1686,6784
1637,6785
1586,6786
1463,6787
1275,6788
1093,6789
965,6790
871,6791
843,6792
893,6793
953,6794
963,6795
915,6796
825,6797
872,6798
1069,6799
1273,6800
1477,6801
1647,6802
1759,6803
1818,6804
1853,6805
1917,6806
1994,6807
2079,6808
2148,6809
2687,6810
2795,6811
2865,6812
2879,6813
2871,6814
2841,6815
2787,6816
2677,6817
2518,6818
2347,6819
2195,6820
2103,6821
2045,6822
2018,6823
2005,6824
2037,6825
2021,6826
1970,6827
1915,6828
1849,6829
1798,6830
1755,6831
1729,6832
1718,6833
1777,6834
1877,6835
1966,6836
2005,6837
2005,6838
1999,6839
1631,6840
1691,6841
1751,6842
1810,6843
1835,6844
1832,6845
1815,6846
1833,6847
1864,6848
1913,6849
1978,6850
2035,6851
2075,6852
2108,6853
2124,6854
2130,6855
2167,6856
2211,6857
2262,6858
2289,6859
2225,6860
2146,6861
2126,6862
2158,6863
2202,6864
2243,6865
2247,6866
2228,6867
2199,6868
2206,6869
2289,6870
2315,6871
2347,6872
2387,6873
2407,6874
2407,6875
2367,6876
2310,6877
2287,6878
2307,6879
2356,6880
2399,6881
2437,6882
2445,6883
2482,6884
2527,6885
2580,6886
2585,6887
2546,6888
2471,6889
2363,6890
2313,6891
2323,6892
2378,6893
2439,6894
2485,6895
2490,6896
2484,6897
2492,6898
2505,6899
2361,6900
2375,6901
2359,6902
2269,6903
2157,6904
2071,6905
2054,6906
2075,6907
2110,6908
2125,6909
2102,6910
2027,6911
1948,6912
1893,6913
1874,6914
1895,6915
1933,6916
1987,6917
2058,6918
2191,6919
2367,6920
2542,6921
2673,6922
2737,6923
2675,6924
2487,6925
2279,6926
2083,6927
1903,6928
1715,6929
1114,6930
1206,6931
1281,6932
1331,6933
1396,6934
1449,6935
1492,6936
1513,6937
1528,6938
1552,6939
1593,6940
1672,6941
1762,6942
1870,6943
1969,6944
2031,6945
2038,6946
2033,6947
2042,6948
2062,6949
2084,6950
2094,6951
2097,6952
2075,6953
2071,6954
2063,6955
2058,6956
2065,6957
2089,6958
2107,6959
2199,6960
2167,6961
2149,6962
2152,6963
2163,6964
2175,6965
2172,6966
2159,6967
2138,6968
2154,6969
2190,6970
2217,6971
2212,6972
2187,6973
2150,6974
2123,6975
2145,6976
2182,6977
2221,6978
2238,6979
2238,6980
2198,6981
2182,6982
2195,6983
2213,6984
2238,6985
2245,6986
2237,6987
2214,6988
2222,6989
2301,6990
2323,6991
2347,6992
2381,6993
2397,6994
2402,6995
2382,6996
2379,6997
2407,6998
2446,6999
2477,7000
2489,7001
2491,7002
2469,7003
2470,7004
2487,7005
2508,7006
2505,7007
2477,7008
2423,7009
2361,7010
2335,7011
2333,7012
2318,7013
2282,7014
2246,7015
2202,7016
2187,7017
2206,7018
2238,7019
2143,7020
2159,7021
2152,7022
2129,7023
2094,7024
2069,7025
2090,7026
2122,7027
2163,7028
2189,7029
2206,7030
2195,7031
2187,7032
2183,7033
2173,7034
2163,7035
2149,7036
2154,7037
2185,7038
2269,7039
2346,7040
2397,7041
2439,7042
2415,7043
2351,7044
2321,7045
2374,7046
2471,7047
2541,7048
2552,7049
2427,7050
2370,7051
2337,7052
2289,7053
2289,7054
2349,7055
2450,7056
2609,7057
2737,7058
2807,7059
2841,7060
2903,7061
2897,7062
2814,7063
2651,7064
2282,7065
1721,7066
1266,7067
1165,7068
1419,7069
1797,7070
2147,7071
2371,7072
2417,7073
2331,7074
2155,7075
1935,7076
1699,7077
1508,7078
1355,7079
1601,7080
1811,7081
2034,7082
2277,7083
2469,7084
2558,7085
2520,7086
2391,7087
2212,7088
2058,7089
1921,7090
1780,7091
1613,7092
1421,7093
1226,7094
1088,7095
1028,7096
1005,7097
981,7098
929,7099
858,7100
789,7101
765,7102
799,7103
882,7104
998,7105
1119,7106
1237,7107
1328,7108
1427,7109
1711,7110
1783,7111
1917,7112
2067,7113
2183,7114
2268,7115
2295,7116
2309,7117
2315,7118
2307,7119
2301,7120
2294,7121
2251,7122
2193,7123
2230,7124
2356,7125
2504,7126
2593,7127
2615,7128
2611,7129
2617,7130
2645,7131
2649,7132
2633,7133
2591,7134
2550,7135
2500,7136
2474,7137
2481,7138
2486,7139
2273,7140
2254,7141
2200,7142
2120,7143
2011,7144
1890,7145
1843,7146
1875,7147
1953,7148
2019,7149
2071,7150
2109,7151
2158,7152
2181,7153
2165,7154
2126,7155
2074,7156
2029,7157
1981,7158
1983,7159
2018,7160
2042,7161
2089,7162
2120,7163
2138,7164
2168,7165
2255,7166
2355,7167
2385,7168
2255,7169
1609,7170
1649,7171
1673,7172
1703,7173
1811,7174
2006,7175
2303,7176
2694,7177
3090,7178
3311,7179
3369,7180
3340,7181
3221,7182
2953,7183
2577,7184
2315,7185
2221,7186
2283,7187
2435,7188
2483,7189
2371,7190
2105,7191
1703,7192
1265,7193
923,7194
735,7195
680,7196
700,7197
661,7198
539,7199
681,7200
724,7201
746,7202
732,7203
669,7204
594,7205
534,7206
524,7207
554,7208
666,7209
858,7210
1118,7211
1385,7212
1609,7213
1795,7214
1979,7215
2189,7216
2421,7217
2666,7218
2851,7219
2982,7220
3010,7221
2947,7222
2826,7223
2657,7224
2465,7225
2263,7226
2073,7227
1825,7228
1631,7229
2033,7230
2067,7231
2055,7232
2051,7233
2077,7234
2138,7235
2261,7236
2423,7237
2583,7238
2745,7239
2957,7240
3049,7241
2969,7242
2830,7243
2731,7244
2797,7245
2797,7246
2635,7247
2441,7248
2447,7249
2690,7250
3118,7251
3583,7252
4006,7253
4095,7254
4095,7255
4035,7256
3870,7257
3715,7258
3597,7259
3426,7260
3541,7261
3663,7262
3740,7263
3723,7264
3629,7265
3549,7266
3521,7267
3547,7268
3519,7269
3382,7270
3134,7271
2887,7272
2698,7273
2501,7274
2300,7275
2104,7276
1901,7277
1715,7278
1645,7279
1703,7280
1896,7281
2151,7282
2397,7283
2554,7284
2601,7285
2559,7286
2454,7287
2338,7288
2219,7289
2542,7290
2460,7291
2349,7292
2243,7293
2148,7294
2044,7295
1932,7296
1801,7297
1701,7298
1615,7299
1530,7300
1471,7301
1431,7302
1402,7303
1363,7304
1326,7305
1279,7306
1265,7307
1277,7308
1263,7309
1220,7310
1157,7311
1085,7312
1001,7313
947,7314
943,7315
1011,7316
1124,7317
1261,7318
1394,7319
2146,7320
2231,7321
2331,7322
2386,7323
2359,7324
2321,7325
2276,7326
2173,7327
2014,7328
1862,7329
1805,7330
1814,7331
1797,7332
1826,7333
1865,7334
1930,7335
2047,7336
2153,7337
2239,7338
2328,7339
2385,7340
2399,7341
2390,7342
2375,7343
2347,7344
2307,7345
2287,7346
2261,7347
2242,7348
2249,7349
2503,7350
2450,7351
2449,7352
2497,7353
2541,7354
2555,7355
2500,7356
2423,7357
2374,7358
2356,7359
2373,7360
2383,7361
2383,7362
2303,7363
2235,7364
2175,7365
2115,7366
2058,7367
2077,7368
2167,7369
2228,7370
2254,7371
2270,7372
2291,7373
2238,7374
2180,7375
2066,7376
1911,7377
1811,7378
1747,7379
1867,7380
1900,7381
1862,7382
1799,7383
1831,7384
1923,7385
1989,7386
1961,7387
1790,7388
1590,7389
1441,7390
1301,7391
1209,7392
1159,7393
1197,7394
1310,7395
1368,7396
1371,7397
1337,7398
1335,7399
1361,7400
1388,7401
1420,7402
1471,7403
1518,7404
1553,7405
1601,7406
1647,7407
1682,7408
1683,7409
1681,7410
1751,7411
1777,7412
1734,7413
1696,7414
1679,7415
1681,7416
1668,7417
1646,7418
1653,7419
1687,7420
1705,7421
1705,7422
1687,7423
1619,7424
1538,7425
1465,7426
1431,7427
1410,7428
1380,7429
1351,7430
1324,7431
1301,7432
1271,7433
1297,7434
1365,7435
1465,7436
1562,7437
1628,7438
1642,7439
1692,7440
1673,7441
1702,7442
1789,7443
1916,7444
2065,7445
2220,7446
2393,7447
2549,7448
2714,7449
2829,7450
2838,7451
2739,7452
2593,7453
2398,7454
2187,7455
1979,7456
1744,7457
1497,7458
1285,7459
1162,7460
1116,7461
1162,7462
1271,7463
1380,7464
1469,7465
1522,7466
1544,7467
1533,7468
1563,7469
1965,7470
2045,7471
2113,7472
2164,7473
2185,7474
2193,7475
2179,7476
2210,7477
2282,7478
2345,7479
2367,7480
2348,7481
2309,7482
2263,7483
2259,7484
2277,7485
2290,7486
2277,7487
2245,7488
2193,7489
2143,7490
2139,7491
2151,7492
2181,7493
2193,7494
2193,7495
2163,7496
2147,7497
2156,7498
2174,7499
2135,7500
2164,7501
2177,7502
2174,7503
2151,7504
2130,7505
2142,7506
2162,7507
2183,7508
2179,7509
2161,7510
2137,7511
2139,7512
2173,7513
2213,7514
2235,7515
2223,7516
2199,7517
2165,7518
2168,7519
2191,7520
2216,7521
2222,7522
2216,7523
2193,7524
2173,7525
2193,7526
2215,7527
2235,7528
2230,7529
2238,7530
2238,7531
2225,7532
2197,7533
2205,7534
2232,7535
2265,7536
2281,7537
2275,7538
2246,7539
2221,7540
2231,7541
2250,7542
2278,7543
2282,7544
2268,7545
2227,7546
2203,7547
2203,7548
2218,7549
2230,7550
2221,7551
2195,7552
2153,7553
2139,7554
2142,7555
2153,7556
2148,7557
2132,7558
2100,7559
2067,7560
2022,7561
2010,7562
2027,7563
2044,7564
2044,7565
2024,7566
1992,7567
1953,7568
1946,7569
1957,7570
1978,7571
1983,7572
1972,7573
1939,7574
1911,7575
1919,7576
1939,7577
1957,7578
1951,7579
1938,7580
1907,7581
1901,7582
1930,7583
1971,7584
2003,7585
2010,7586
1999,7587
1973,7588
1977,7589
1991,7590
2005,7591
2031,7592
2057,7593
2055,7594
2042,7595
2004,7596
1991,7597
2010,7598
2039,7599
2063,7600
2057,7601
2031,7602
2001,7603
2006,7604
2029,7605
2057,7606
2062,7607
2054,7608
2025,7609
2001,7610
2004,7611
2015,7612
2031,7613
2025,7614
2007,7615
1969,7616
1954,7617
1970,7618
1994,7619
1972,7620
2007,7621
2026,7622
2027,7623
2004,7624
1986,7625
2002,7626
2023,7627
2047,7628
2046,7629
2035,7630
2009,7631
2009,7632
2036,7633
2069,7634
2086,7635
2082,7636
2065,7637
2035,7638
2042,7639
2071,7640
2106,7641
2116,7642
2107,7643
2078,7644
2046,7645
2053,7646
2065,7647
2078,7648
2077,7649
2075,7650
2062,7651
2037,7652
2003,7653
2009,7654
2038,7655
2079,7656
2094,7657
2089,7658
2066,7659
2047,7660
2067,7661
2091,7662
2117,7663
2118,7664
2103,7665
2063,7666
2041,7667
2051,7668
2069,7669
2079,7670
2072,7671
2053,7672
2021,7673
2023,7674
2039,7675
2061,7676
2062,7677
2042,7678
2002,7679
2003,7680
1967,7681
1955,7682
1972,7683
1996,7684
2013,7685
2010,7686
1995,7687
1966,7688
1973,7689
1998,7690
2026,7691
2033,7692
2023,7693
1994,7694
1973,7695
1989,7696
2012,7697
2031,7698
2027,7699
2010,7700
1959,7701
1926,7702
1919,7703
1934,7704
1971,7705
2015,7706
2078,7707
2158,7708
2300,7709
2710,7710
2574,7711
2429,7712
2271,7713
2078,7714
1850,7715
1569,7716
1323,7717
1180,7718
1144,7719
1193,7720
1271,7721
1349,7722
1395,7723
1464,7724
1542,7725
1613,7726
1660,7727
1695,7728
1709,7729
1729,7730
1784,7731
1854,7732
1938,7733
2005,7734
2062,7735
2077,7736
2095,7737
2125,7738
2154,7739
2160,7740
2200,7741
2217,7742
2213,7743
2185,7744
2164,7745
2183,7746
2207,7747
2231,7748
2231,7749
2219,7750
2184,7751
2166,7752
2177,7753
2194,7754
2205,7755
2195,7756
2167,7757
2133,7758
2133,7759
2153,7760
2185,7761
2193,7762
2182,7763
2150,7764
2123,7765
2125,7766
2136,7767
2157,7768
2160,7769
2231,7770
2237,7771
2230,7772
2213,7773
2230,7774
2260,7775
2289,7776
2291,7777
2281,7778
2255,7779
2244,7780
2266,7781
2290,7782
2310,7783
2295,7784
2270,7785
2225,7786
2204,7787
2218,7788
2239,7789
2252,7790
2239,7791
2217,7792
2185,7793
2189,7794
2206,7795
2230,7796
2239,7797
2237,7798
2217,7799
2237,7800
2203,7801
2190,7802
2201,7803
2223,7804
2243,7805
2238,7806
2217,7807
2183,7808
2179,7809
2189,7810
2209,7811
2210,7812
2195,7813
2159,7814
2130,7815
2134,7816
2149,7817
2161,7818
2149,7819
2121,7820
2070,7821
2042,7822
2047,7823
2063,7824
2070,7825
2051,7826
2014,7827
1970,7828
1959,7829
1903,7830
1912,7831
1928,7832
1945,7833
1941,7834
1927,7835
1896,7836
1889,7837
1907,7838
1932,7839
1948,7840
1943,7841
1924,7842
1900,7843
1917,7844
1953,7845
1988,7846
1998,7847
1993,7848
1970,7849
1956,7850
1974,7851
1999,7852
2021,7853
2020,7854
2013,7855
1983,7856
1979,7857
2000,7858
2024,7859
1998,7860
2020,7861
2023,7862
2011,7863
1977,7864
1947,7865
1951,7866
1967,7867
1989,7868
1989,7869
1977,7870
1941,7871
1929,7872
1945,7873
1969,7874
1983,7875
1976,7876
1959,7877
1932,7878
1940,7879
1964,7880
1998,7881
2012,7882
2009,7883
1982,7884
1961,7885
1970,7886
1987,7887
2011,7888
2014,7889
2013,7890
2001,7891
1969,7892
1930,7893
1927,7894
1942,7895
1967,7896
1977,7897
1969,7898
1939,7899
1914,7900
1923,7901
1939,7902
1961,7903
1962,7904
1954,7905
1923,7906
1916,7907
1934,7908
1959,7909
1975,7910
1966,7911
1939,7912
1903,7913
1911,7914
1940,7915
1972,7916
1980,7917
1971,7918
1938,7919
1967,7920
1943,7921
1947,7922
1978,7923
2009,7924
2029,7925
2025,7926
2001,7927
1965,7928
1966,7929
1987,7930
2018,7931
2037,7932
2045,7933
2030,7934
2014,7935
2027,7936
2052,7937
2083,7938
2091,7939
2086,7940
2057,7941
2053,7942
2073,7943
2098,7944
2108,7945
2095,7946
2067,7947
2031,7948
2031,7949
1982,7950
1977,7951
1982,7952
1991,7953
1976,7954
1956,7955
1925,7956
1933,7957
1968,7958
2003,7959
2020,7960
2010,7961
1986,7962
1953,7963
1955,7964
1973,7965
2002,7966
2010,7967
2004,7968
1977,7969
1958,7970
1971,7971
1991,7972
2014,7973
2010,7974
1989,7975
1943,7976
1917,7977
1917,7978
1928,7979
2191,7980
2373,7981
2548,7982
2685,7983
2763,7984
2806,7985
2795,7986
2691,7987
2535,7988
2343,7989
2134,7990
1905,7991
1697,7992
1501,7993
1341,7994
1245,7995
1211,7996
1232,7997
1273,7998
1363,7999
1464,8000
1551,8001
1598,8002
1631,8003
1647,8004
1677,8005
1745,8006
1825,8007
1911,8008
1978,8009
2149,8010
2139,8011
2122,8012
2101,8013
2115,8014
2142,8015
2171,8016
2175,8017
2168,8018
2140,8019
2123,8020
2139,8021
2163,8022
2187,8023
2183,8024
2170,8025
2139,8026
2134,8027
2149,8028
2163,8029
2170,8030
2158,8031
2137,8032
2107,8033
2110,8034
2130,8035
2154,8036
2153,8037
2143,8038
2111,8039
2129,8040
2097,8041
2099,8042
2131,8043
2169,8044
2199,8045
2202,8046
2187,8047
2162,8048
2171,8049
2195,8050
2230,8051
2243,8052
2245,8053
2226,8054
2213,8055
2227,8056
2251,8057
2278,8058
2274,8059
2255,8060
2216,8061
2205,8062
2221,8063
2246,8064
2260,8065
2252,8066
2232,8067
2204,8068
2209,8069
2202,8070
2211,8071
2227,8072
2243,8073
2235,8074
2219,8075
2186,8076
2178,8077
2195,8078
2214,8079
2223,8080
2214,8081
2189,8082
2161,8083
2166,8084
2186,8085
2214,8086
2217,8087
2205,8088
2170,8089
2145,8090
2154,8091
2169,8092
2183,8093
2167,8094
2143,8095
2103,8096
2092,8097
2099,8098
2106,8099
2015,8100
2035,8101
2031,8102
2012,8103
1975,8104
1950,8105
1961,8106
1977,8107
1987,8108
1977,8109
1963,8110
1930,8111
1922,8112
1936,8113
1960,8114
1974,8115
1970,8116
1949,8117
1921,8118
1931,8119
1959,8120
1991,8121
2003,8122
1999,8123
1972,8124
1957,8125
1973,8126
1995,8127
2014,8128
2011,8129
2029,8130
2025,8131
2005,8132
1978,8133
1987,8134
2007,8135
2029,8136
2029,8137
2013,8138
1982,8139
1961,8140
1971,8141
1986,8142
2005,8143
2005,8144
1994,8145
1959,8146
1949,8147
1965,8148
1986,8149
1996,8150
1987,8151
1967,8152
1945,8153
1957,8154
1981,8155
2009,8156
2011,8157
2001,8158
1968,8159
2013,8160
1977,8161
1970,8162
1989,8163
2011,8164
2022,8165
2014,8166
1996,8167
1970,8168
1974,8169
1985,8170
2007,8171
2011,8172
2002,8173
1977,8174
1965,8175
1986,8176
2012,8177
2030,8178
2023,8179
2009,8180
1978,8181
1973,8182
1989,8183
2012,8184
2027,8185
2024,8186
2003,8187
1976,8188
1988,8189
1998,8190
2017,8191
2044,8192
2071,8193
2075,8194
2068,8195
2038,8196
2032,8197
2047,8198
2070,8199
2079,8200
2074,8201
2055,8202
2027,8203
2033,8204
2051,8205
2071,8206
2072,8207
2063,8208
2035,8209
2015,8210
2031,8211
2058,8212
2085,8213
2086,8214
2076,8215
2045,8216
2042,8217
2062,8218
2081,8219
2089,8220
2125,8221
2132,8222
2119,8223
2084,8224
2069,8225
2095,8226
2129,8227
2159,8228
2165,8229
2155,8230
2115,8231
2102,8232
2115,8233
2135,8234
2140,8235
2123,8236
2091,8237
2058,8238
2065,8239
2087,8240
2105,8241
2090,8242
2059,8243
2013,8244
1993,8245
2009,8246
2034,8247
2060,8248
2060,8249
2060,8250
2045,8251
2019,8252
1989,8253
1998,8254
2022,8255
2052,8256
2053,8257
2033,8258
1993,8259
1967,8260
1979,8261
2001,8262
2019,8263
2001,8264
1961,8265
1907,8266
1894,8267
1931,8268
2010,8269
2109,8270
2221,8271
2348,8272
2485,8273
2642,8274
2774,8275
2874,8276
2867,8277
2739,8278
2530,8279
1374,8280
1217,8281
1181,8282
1241,8283
1336,8284
1431,8285
1505,8286
1549,8287
1569,8288
1620,8289
1683,8290
1754,8291
1809,8292
1853,8293
1885,8294
1933,8295
2011,8296
2081,8297
2127,8298
2135,8299
2127,8300
2098,8301
2100,8302
2127,8303
2158,8304
2170,8305
2167,8306
2147,8307
2116,8308
2123,8309
2108,8310
2128,8311
2149,8312
2168,8313
2163,8314
2147,8315
2115,8316
2111,8317
2134,8318
2160,8319
2173,8320
2162,8321
2130,8322
2095,8323
2099,8324
2121,8325
2150,8326
2158,8327
2152,8328
2122,8329
2103,8330
2119,8331
2146,8332
2172,8333
2173,8334
2166,8335
2138,8336
2135,8337
2157,8338
2183,8339
2218,8340
2247,8341
2251,8342
2245,8343
2215,8344
2200,8345
2215,8346
2231,8347
2243,8348
2232,8349
2214,8350
2179,8351
2172,8352
2193,8353
2220,8354
2241,8355
2239,8356
2219,8357
2186,8358
2187,8359
2204,8360
2226,8361
2227,8362
2219,8363
2190,8364
2172,8365
2181,8366
2195,8367
2206,8368
2197,8369
2215,8370
2206,8371
2183,8372
2156,8373
2162,8374
2181,8375
2206,8376
2203,8377
2184,8378
2140,8379
2111,8380
2118,8381
2132,8382
2139,8383
2120,8384
2089,8385
2038,8386
2022,8387
2033,8388
2053,8389
2047,8390
2022,8391
1985,8392
1950,8393
1953,8394
1970,8395
1991,8396
1989,8397
1974,8398
1937,8399
1940,8400
1909,8401
1908,8402
1933,8403
1961,8404
1975,8405
1971,8406
1951,8407
1927,8408
1941,8409
1964,8410
1993,8411
1994,8412
1983,8413
1955,8414
1937,8415
1951,8416
1977,8417
1998,8418
1989,8419
1971,8420
1939,8421
1936,8422
1958,8423
1983,8424
1991,8425
1979,8426
1955,8427
1931,8428
1947,8429
1929,8430
1943,8431
1969,8432
1993,8433
1989,8434
1972,8435
1932,8436
1926,8437
1949,8438
1977,8439
1992,8440
1985,8441
1963,8442
1934,8443
1941,8444
1963,8445
1989,8446
1991,8447
1981,8448
1951,8449
1938,8450
1957,8451
1979,8452
1996,8453
1986,8454
1970,8455
1941,8456
1946,8457
1970,8458
1995,8459
1974,8460
1998,8461
1997,8462
1989,8463
1959,8464
1945,8465
1963,8466
1990,8467
2011,8468
2007,8469
1995,8470
1964,8471
1963,8472
1982,8473
2006,8474
2019,8475
2010,8476
1989,8477
1965,8478
1977,8479
2003,8480
2035,8481
2043,8482
2037,8483
2006,8484
1993,8485
2011,8486
2036,8487
2053,8488
2041,8489
2072,8490
2065,8491
2038,8492
2013,8493
2017,8494
2031,8495
2059,8496
2065,8497
2058,8498
2030,8499
2019,8500
2041,8501
2067,8502
2079,8503
2069,8504
2051,8505
2013,8506
2009,8507
2029,8508
2054,8509
2062,8510
2051,8511
2022,8512
1993,8513
2003,8514
2027,8515
2057,8516
2065,8517
2060,8518
2031,8519
2043,8520
2006,8521
2000,8522
2023,8523
2061,8524
2087,8525
2092,8526
2072,8527
2043,8528
2051,8529
2070,8530
2101,8531
2115,8532
2117,8533
2093,8534
2081,8535
2100,8536
2121,8537
2134,8538
2122,8539
2094,8540
2045,8541
2034,8542
2052,8543
2082,8544
2097,8545
2086,8546
2047,8547
2006,8548
2003,8549
1989,8550
2006,8551
2031,8552
2053,8553
2044,8554
2027,8555
1996,8556
1995,8557
2017,8558
2040,8559
2046,8560
2036,8561
2008,8562
1981,8563
1991,8564
2012,8565
2037,8566
2036,8567
2021,8568
1978,8569
1944,8570
1939,8571
1940,8572
1951,8573
1967,8574
2007,8575
2066,8576
2186,8577
2358,8578
2553,8579
2511,8580
2342,8581
2148,8582
1943,8583
1709,8584
1474,8585
1305,8586
1225,8587
1228,8588
1266,8589
1318,8590
1366,8591
1447,8592
1537,8593
1615,8594
1676,8595
1717,8596
1744,8597
1769,8598
1830,8599
1905,8600
1986,8601
2039,8602
2070,8603
2061,8604
2054,8605
2073,8606
2098,8607
2119,8608
2111,8609
2135,8610
2135,8611
2115,8612
2093,8613
2107,8614
2133,8615
2159,8616
2164,8617
2157,8618
2127,8619
2114,8620
2131,8621
2154,8622
2170,8623
2165,8624
2147,8625
2111,8626
2109,8627
2132,8628
2166,8629
2186,8630
2180,8631
2155,8632
2124,8633
2125,8634
2134,8635
2150,8636
2150,8637
2143,8638
2119,8639
2181,8640
2156,8641
2161,8642
2185,8643
2213,8644
2221,8645
2212,8646
2190,8647
2170,8648
2192,8649
2221,8650
2248,8651
2243,8652
2227,8653
2188,8654
2164,8655
2171,8656
2188,8657
2205,8658
2203,8659
2195,8660
2165,8661
2164,8662
2186,8663
2215,8664
2226,8665
2219,8666
2189,8667
2149,8668
2149,8669
2143,8670
2168,8671
2193,8672
2213,8673
2211,8674
2195,8675
2163,8676
2158,8677
2178,8678
2203,8679
2213,8680
2203,8681
2173,8682
2142,8683
2147,8684
2162,8685
2174,8686
2165,8687
2142,8688
2097,8689
2068,8690
2071,8691
2086,8692
2095,8693
2081,8694
2057,8695
2017,8696
2009,8697
2019,8698
2035,8699
1963,8700
1989,8701
1993,8702
1979,8703
1942,8704
1927,8705
1942,8706
1965,8707
1985,8708
1982,8709
1969,8710
1935,8711
1936,8712
1957,8713
1979,8714
1991,8715
1982,8716
1961,8717
1943,8718
1964,8719
1989,8720
2008,8721
2006,8722
1998,8723
1975,8724
1973,8725
1993,8726
2017,8727
2033,8728
2023,8729
2021,8730
2008,8731
1977,8732
1943,8733
1947,8734
1963,8735
1985,8736
1985,8737
1976,8738
1947,8739
1938,8740
1958,8741
1981,8742
1999,8743
1992,8744
1975,8745
1947,8746
1950,8747
1978,8748
2017,8749
2031,8750
2021,8751
1991,8752
1961,8753
1967,8754
1985,8755
2007,8756
2008,8757
2003,8758
1974,8759
1999,8760
1969,8761
1973,8762
1998,8763
2026,8764
2039,8765
2034,8766
2010,8767
1990,8768
2004,8769
2025,8770
2045,8771
2042,8772
2028,8773
1986,8774
1964,8775
1980,8776
2009,8777
2036,8778
2043,8779
2037,8780
2011,8781
2015,8782
2038,8783
2069,8784
2079,8785
2070,8786
2045,8787
2021,8788
2033,8789
2018,8790
2037,8791
2063,8792
2083,8793
2079,8794
2063,8795
2029,8796
2030,8797
2053,8798
2078,8799
2081,8800
2062,8801
2029,8802
2009,8803
2031,8804
2065,8805
2088,8806
2081,8807
2059,8808
2018,8809
2001,8810
2019,8811
2051,8812
2075,8813
2077,8814
2063,8815
2029,8816
2026,8817
2041,8818
2063,8819
2039,8820
2071,8821
2070,8822
2056,8823
2022,8824
2012,8825
2033,8826
2057,8827
2072,8828
2067,8829
2052,8830
2023,8831
2031,8832
2056,8833
2085,8834
2091,8835
2079,8836
2046,8837
2015,8838
2027,8839
2054,8840
2085,8841
2097,8842
2103,8843
2085,8844
2079,8845
2099,8846
2125,8847
2146,8848
2148,8849
2149,8850
2123,8851
2082,8852
2046,8853
2054,8854
2076,8855
2098,8856
2085,8857
2054,8858
2001,8859
1974,8860
1983,8861
2007,8862
2027,8863
2025,8864
2018,8865
1994,8866
1998,8867
2018,8868
2042,8869
2051,8870
2037,8871
2007,8872
1977,8873
1983,8874
2005,8875
2030,8876
2027,8877
2007,8878
1967,8879
1974,8880
1922,8881
1903,8882
1910,8883
1943,8884
1985,8885
2039,8886
2109,8887
2213,8888
2379,8889
2559,8890
2723,8891
2828,8892
2850,8893
2735,8894
2575,8895
2421,8896
2257,8897
2077,8898
1865,8899
1611,8900
1338,8901
1164,8902
1111,8903
1157,8904
1242,8905
1329,8906
1388,8907
1435,8908
1501,8909
1695,8910
1751,8911
1820,8912
1889,8913
1934,8914
1956,8915
1953,8916
1971,8917
2003,8918
2037,8919
2047,8920
2040,8921
2019,8922
2001,8923
2014,8924
2037,8925
2063,8926
2065,8927
2056,8928
2025,8929
2014,8930
2037,8931
2073,8932
2099,8933
2102,8934
2094,8935
2067,8936
2063,8937
2075,8938
2097,8939
2077,8940
2111,8941
2120,8942
2111,8943
2081,8944
2071,8945
2092,8946
2117,8947
2135,8948
2132,8949
2119,8950
2094,8951
2100,8952
2121,8953
2146,8954
2154,8955
2143,8956
2114,8957
2086,8958
2097,8959
2122,8960
2148,8961
2143,8962
2125,8963
2085,8964
2075,8965
2097,8966
2123,8967
2141,8968
2138,8969
2137,8970
2126,8971
2102,8972
2085,8973
2104,8974
2131,8975
2157,8976
2159,8977
2147,8978
2103,8979
2091,8980
2113,8981
2137,8982
2151,8983
2145,8984
2127,8985
2099,8986
2102,8987
2125,8988
2150,8989
2156,8990
2147,8991
2119,8992
2093,8993
2103,8994
2123,8995
2145,8996
2141,8997
2125,8998
2085,8999
2066,9000
2026,9001
2020,9002
2035,9003
2054,9004
2055,9005
2037,9006
2002,9007
1966,9008
1963,9009
1971,9010
1986,9011
1980,9012
1963,9013
1922,9014
1901,9015
1915,9016
1941,9017
1958,9018
1949,9019
1923,9020
1884,9021
1885,9022
1907,9023
1933,9024
1940,9025
1930,9026
1905,9027
1887,9028
1909,9029
1939,9030
1959,9031
1986,9032
2005,9033
2006,9034
1991,9035
1964,9036
1969,9037
1989,9038
2015,9039
2020,9040
2006,9041
1972,9042
1938,9043
1945,9044
1973,9045
2004,9046
2006,9047
1995,9048
1960,9049
1943,9050
1960,9051
1982,9052
1994,9053
1982,9054
1965,9055
1940,9056
1947,9057
1967,9058
1992,9059
1998,9060
2023,9061
2025,9062
2012,9063
1979,9064
1969,9065
1989,9066
2015,9067
2034,9068
2027,9069
2006,9070
1973,9071
1976,9072
1997,9073
2023,9074
2033,9075
2026,9076
2001,9077
1978,9078
1988,9079
2013,9080
2045,9081
2043,9082
2021,9083
1976,9084
1961,9085
1973,9086
2001,9087
2027,9088
2030,9089
2051,9090
2037,9091
2010,9092
1989,9093
2006,9094
2034,9095
2059,9096
2059,9097
2051,9098
2018,9099
2006,9100
2022,9101
2043,9102
2062,9103
2063,9104
2052,9105
2025,9106
2027,9107
2046,9108
2071,9109
2075,9110
2065,9111
2033,9112
2010,9113
2025,9114
2053,9115
2079,9116
2079,9117
2067,9118
2034,9119
2069,9120
2039,9121
2041,9122
2060,9123
2083,9124
2092,9125
2086,9126
2059,9127
2038,9128
2055,9129
2081,9130
2104,9131
2101,9132
2088,9133
2058,9134
2047,9135
2065,9136
2089,9137
2108,9138
2109,9139
2098,9140
2075,9141
2083,9142
2105,9143
2130,9144
2129,9145
2113,9146
2082,9147
2065,9148
2086,9149
2094,9150
2121,9151
2158,9152
2183,9153
2182,9154
2159,9155
2122,9156
2115,9157
2125,9158
2145,9159
2148,9160
2134,9161
2099,9162
2073,9163
2087,9164
2104,9165
2115,9166
2095,9167
2066,9168
2022,9169
2007,9170
2027,9171
2057,9172
2075,9173
2069,9174
2047,9175
2020,9176
2026,9177
2052,9178
2079,9179
2050,9180
2074,9181
2071,9182
2065,9183
2036,9184
2029,9185
2042,9186
2057,9187
2057,9188
2028,9189
1986,9190
1933,9191
1927,9192
1964,9193
2035,9194
2120,9195
2216,9196
2321,9197
2457,9198
2627,9199
2772,9200
2877,9201
2873,9202
2741,9203
2535,9204
2342,9205
2174,9206
2015,9207
1842,9208
1622,9209
1433,9210
1499,9211
1542,9212
1579,9213
1638,9214
1703,9215
1770,9216
1817,9217
1851,9218
1868,9219
1916,9220
2001,9221
2085,9222
2143,9223
2159,9224
2149,9225
2121,9226
2127,9227
2152,9228
2187,9229
2198,9230
2190,9231
2161,9232
2138,9233
2151,9234
2175,9235
2203,9236
2204,9237
2191,9238
2156,9239
2171,9240
2137,9241
2139,9242
2161,9243
2185,9244
2187,9245
2177,9246
2151,9247
2131,9248
2145,9249
2166,9250
2189,9251
2186,9252
2174,9253
2142,9254
2141,9255
2167,9256
2197,9257
2211,9258
2205,9259
2193,9260
2171,9261
2181,9262
2207,9263
2243,9264
2253,9265
2243,9266
2215,9267
2201,9268
2225,9269
2201,9270
2217,9271
2241,9272
2260,9273
2259,9274
2243,9275
2214,9276
2211,9277
2223,9278
2244,9279
2248,9280
2237,9281
2209,9282
2188,9283
2201,9284
2221,9285
2241,9286
2235,9287
2221,9288
2193,9289
2193,9290
2213,9291
2235,9292
2239,9293
2223,9294
2198,9295
2164,9296
2167,9297
2189,9298
2215,9299
2180,9300
2196,9301
2187,9302
2169,9303
2133,9304
2127,9305
2143,9306
2156,9307
2153,9308
2127,9309
2093,9310
2059,9311
2059,9312
2069,9313
2083,9314
2077,9315
2057,9316
2017,9317
1989,9318
1999,9319
2015,9320
2027,9321
2014,9322
1991,9323
1947,9324
1932,9325
1949,9326
1973,9327
1990,9328
1981,9329
1981,9330
1979,9331
1959,9332
1946,9333
1964,9334
1986,9335
2009,9336
2006,9337
1993,9338
1957,9339
1950,9340
1976,9341
2007,9342
2026,9343
2017,9344
1994,9345
1965,9346
1971,9347
1993,9348
2015,9349
2019,9350
2003,9351
1965,9352
1936,9353
1944,9354
1961,9355
1977,9356
1969,9357
1948,9358
1907,9359
1931,9360
1890,9361
1890,9362
1914,9363
1947,9364
1955,9365
1948,9366
1929,9367
1921,9368
1945,9369
1976,9370
2009,9371
2013,9372
2002,9373
1967,9374
1959,9375
1979,9376
2010,9377
2033,9378
2035,9379
2020,9380
1994,9381
2002,9382
2025,9383
2053,9384
2060,9385
2053,9386
2022,9387
1999,9388
2009,9389
1993,9390
2003,9391
2020,9392
2029,9393
2017,9394
1993,9395
1960,9396
1962,9397
1981,9398
2011,9399
2025,9400
2026,9401
2003,9402
1991,9403
2013,9404
2041,9405
2066,9406
2061,9407
2044,9408
2011,9409
2005,9410
2023,9411
2052,9412
2071,9413
2071,9414
2057,9415
2031,9416
2037,9417
2061,9418
2085,9419
2067,9420
2091,9421
2087,9422
2071,9423
2034,9424
2026,9425
2046,9426
2075,9427
2091,9428
2084,9429
2060,9430
2025,9431
2026,9432
2045,9433
2074,9434
2083,9435
2075,9436
2044,9437
2023,9438
2037,9439
2059,9440
2079,9441
2078,9442
2070,9443
2036,9444
2026,9445
2040,9446
2066,9447
2086,9448
2085,9449
2105,9450
2092,9451
2065,9452
2051,9453
2071,9454
2098,9455
2122,9456
2121,9457
2109,9458
2081,9459
2083,9460
2114,9461
2148,9462
2167,9463
2163,9464
2143,9465
2108,9466
2107,9467
2122,9468
2142,9469
2141,9470
2126,9471
2097,9472
2071,9473
2077,9474
2086,9475
2087,9476
2069,9477
2045,9478
2011,9479
2054,9480
2023,9481
2026,9482
2052,9483
2081,9484
2085,9485
2070,9486
2031,9487
2007,9488
2019,9489
2042,9490
2065,9491
2060,9492
2041,9493
2001,9494
1989,9495
2003,9496
2015,9497
2013,9498
1986,9499
1947,9500
1917,9501
1950,9502
2029,9503
2147,9504
2275,9505
2419,9506
2556,9507
2680,9508
2799,9509
2036,9510
1863,9511
1689,9512
1487,9513
1303,9514
1189,9515
1151,9516
1211,9517
1310,9518
1421,9519
1502,9520
1556,9521
1572,9522
1596,9523
1659,9524
1738,9525
1815,9526
1866,9527
1910,9528
1941,9529
1995,9530
2062,9531
2117,9532
2140,9533
2138,9534
2117,9535
2086,9536
2095,9537
2122,9538
2150,9539
2141,9540
2157,9541
2146,9542
2127,9543
2094,9544
2093,9545
2119,9546
2153,9547
2170,9548
2163,9549
2139,9550
2107,9551
2110,9552
2124,9553
2146,9554
2149,9555
2145,9556
2119,9557
2099,9558
2110,9559
2132,9560
2157,9561
2154,9562
2135,9563
2098,9564
2095,9565
2118,9566
2147,9567
2159,9568
2153,9569
2186,9570
2180,9571
2156,9572
2143,9573
2165,9574
2196,9575
2226,9576
2228,9577
2216,9578
2185,9579
2181,9580
2199,9581
2220,9582
2231,9583
2221,9584
2198,9585
2168,9586
2173,9587
2191,9588
2217,9589
2221,9590
2207,9591
2174,9592
2156,9593
2166,9594
2189,9595
2212,9596
2207,9597
2190,9598
2151,9599
2167,9600
2133,9601
2139,9602
2164,9603
2195,9604
2201,9605
2193,9606
2162,9607
2145,9608
2158,9609
2177,9610
2191,9611
2179,9612
2158,9613
2119,9614
2107,9615
2118,9616
2135,9617
2135,9618
2114,9619
2077,9620
2035,9621
2031,9622
2039,9623
2047,9624
2035,9625
2014,9626
1977,9627
1954,9628
1962,9629
1904,9630
1922,9631
1946,9632
1953,9633
1941,9634
1913,9635
1884,9636
1893,9637
1919,9638
1948,9639
1954,9640
1945,9641
1917,9642
1906,9643
1927,9644
1948,9645
1971,9646
1969,9647
1953,9648
1918,9649
1914,9650
1936,9651
1965,9652
1982,9653
1980,9654
1959,9655
1933,9656
1941,9657
1960,9658
1983,9659
1972,9660
1987,9661
1979,9662
1966,9663
1930,9664
1926,9665
1943,9666
1969,9667
1982,9668
1975,9669
1957,9670
1932,9671
1937,9672
1950,9673
1972,9674
1976,9675
1977,9676
1958,9677
1951,9678
1973,9679
1996,9680
2011,9681
2004,9682
1991,9683
1962,9684
1962,9685
1983,9686
2011,9687
2020,9688
2013,9689
2021,9690
2013,9691
1987,9692
1973,9693
1993,9694
2018,9695
2039,9696
2031,9697
2012,9698
1975,9699
1967,9700
1985,9701
2013,9702
2030,9703
2031,9704
2017,9705
1993,9706
2003,9707
2024,9708
2052,9709
2051,9710
2035,9711
1998,9712
1980,9713
1997,9714
2023,9715
2047,9716
2045,9717
2033,9718
2005,9719
2100,9720
2104,9721
2133,9722
2165,9723
2191,9724
2188,9725
2169,9726
2129,9727
2103,9728
2105,9729
2110,9730
2109,9731
2087,9732
2057,9733
2015,9734
2010,9735
2030,9736
2055,9737
2063,9738
2054,9739
2033,9740
2007,9741
2017,9742
2039,9743
2063,9744
2066,9745
2058,9746
2031,9747
2013,9748
2025,9749
2021,9750
2046,9751
2081,9752
2097,9753
2089,9754
2058,9755
2028,9756
2043,9757
2075,9758
2111,9759
2125,9760
2119,9761
2092,9762
2083,9763
2107,9764
2139,9765
2165,9766
2163,9767
2145,9768
2105,9769
2093,9770
2105,9771
2124,9772
2128,9773
2115,9774
2084,9775
2053,9776
2063,9777
2086,9778
2107,9779
2001,9780
2023,9781
2023,9782
2013,9783
1989,9784
1992,9785
2011,9786
2033,9787
2041,9788
2030,9789
2007,9790
1985,9791
2003,9792
2033,9793
2066,9794
2070,9795
2057,9796
2018,9797
1994,9798
2004,9799
2025,9800
2044,9801
2030,9802
1996,9803
1942,9804
1917,9805
1934,9806
1991,9807
2068,9808
2155,9809
2910,9810
2835,9811
2639,9812
2435,9813
2257,9814
2091,9815
1915,9816
1694,9817
1446,9818
1230,9819
1135,9820
1148,9821
1227,9822
1314,9823
1388,9824
1445,9825
1486,9826
1551,9827
1625,9828
1703,9829
1761,9830
1806,9831
1828,9832
1869,9833
1949,9834
2036,9835
2105,9836
2129,9837
2127,9838
2097,9839
2145,9840
2125,9841
2137,9842
2158,9843
2177,9844
2169,9845
2154,9846
2124,9847
2118,9848
2143,9849
2173,9850
2200,9851
2202,9852
2189,9853
2154,9854
2148,9855
2166,9856
2191,9857
2197,9858
2182,9859
2150,9860
2119,9861
2129,9862
2151,9863
2173,9864
2169,9865
2150,9866
2115,9867
2096,9868
2111,9869
2085,9870
2106,9871
2136,9872
2148,9873
2138,9874
2115,9875
2093,9876
2111,9877
2143,9878
2175,9879
2183,9880
2177,9881
2146,9882
2135,9883
2155,9884
2183,9885
2205,9886
2202,9887
2187,9888
2155,9889
2153,9890
2173,9891
2199,9892
2209,9893
2196,9894
2171,9895
2149,9896
2164,9897
2189,9898
2213,9899
2211,9900
2234,9901
2233,9902
2218,9903
2185,9904
2185,9905
2206,9906
2232,9907
2239,9908
2227,9909
2202,9910
2175,9911
2188,9912
2205,9913
2225,9914
2221,9915
2206,9916
2163,9917
2133,9918
2136,9919
2147,9920
2158,9921
2142,9922
2114,9923
2069,9924
2059,9925
2065,9926
2069,9927
2059,9928
2033,9929
1979,9930
1961,9931
1919,9932
1899,9933
1911,9934
1929,9935
1938,9936
1924,9937
1901,9938
1866,9939
1866,9940
1886,9941
1913,9942
1926,9943
1919,9944
1895,9945
1871,9946
1885,9947
1911,9948
1941,9949
1948,9950
1941,9951
1910,9952
1895,9953
1909,9954
1935,9955
1959,9956
1957,9957
1944,9958
1917,9959
1981,9960
1950,9961
1961,9962
1985,9963
2009,9964
2008,9965
1992,9966
1949,9967
1924,9968
1939,9969
1967,9970
1987,9971
1981,9972
1965,9973
1935,9974
1935,9975
1951,9976
1969,9977
1973,9978
1964,9979
1945,9980
1927,9981
1946,9982
1980,9983
2014,9984
2018,9985
2001,9986
1961,9987
1942,9988
1962,9989
1941,9990
1954,9991
1972,9992
1980,9993
1973,9994
1951,9995
1930,9996
1946,9997
1977,9998
2009,9999
2014,10000
2004,10001
1969,10002
1950,10003
1964,10004
1986,10005
2006,10006
2003,10007
1985,10008
1953,10009
1957,10010
1981,10011
2010,10012
2017,10013
2004,10014
1977,10015
1953,10016
1967,10017
1992,10018
2017,10019
2029,10020
2050,10021
2039,10022
2014,10023
1973,10024
1966,10025
1988,10026
2021,10027
2035,10028
2030,10029
2005,10030
1979,10031
1993,10032
2019,10033
2046,10034
2047,10035
2038,10036
2008,10037
1997,10038
2014,10039
2036,10040
2059,10041
2054,10042
2036,10043
2006,10044
2009,10045
2029,10046
2055,10047
2065,10048
2062,10049
2095,10050
2082,10051
2047,10052
2034,10053
2052,10054
2081,10055
2105,10056
2102,10057
2087,10058
2058,10059
2060,10060
2083,10061
2115,10062
2129,10063
2121,10064
2098,10065
2082,10066
2102,10067
2124,10068
2141,10069
2132,10070
2110,10071
2068,10072
2043,10073
2057,10074
2082,10075
2101,10076
2094,10077
2067,10078
2020,10079
2007,10080
1988,10081
2003,10082
2027,10083
2052,10084
2043,10085
2029,10086
