value,sample number
0,0
0,1
0,2
0,3
0,4
0,5
0,6
0,7
0,8
0,9
0,10
0,11
0,12
0,13
0,14
0,15
0,16
0,17
0,18
0,19
0,20
0,21
0,22
0,23
0,24
0,25
0,26
0,27
0,28
0,29
0,30
0,31
0,32
0,33
0,34
0,35
0,36
0,37
0,38
0,39
0,40
0,41
0,42
0,43
0,44
0,45
0,46
0,47
0,48
0,49
0,50
0,51
0,52
0,53
0,54
0,55
0,56
0,57
0,58
0,59
0,60
0,61
0,62
0,63
0,64
0,65
0,66
0,67
0,68
0,69
0,70
0,71
0,72
0,73
0,74
0,75
0,76
0,77
0,78
0,79
0,80
0,81
0,82
0,83
0,84
0,85
0,86
0,87
0,88
0,89
0,90
0,91
0,92
0,93
0,94
0,95
0,96
0,97
0,98
0,99
0,100
0,101
0,102
0,103
0,104
0,105
0,106
0,107
0,108
0,109
0,110
0,111
0,112
0,113
0,114
0,115
0,116
0,117
0,118
0,119
0,120
0,121
0,122
0,123
0,124
0,125
0,126
0,127
0,128
0,129
0,130
0,131
0,132
0,133
0,134
0,135
0,136
0,137
0,138
0,139
0,140
0,141
0,142
0,143
0,144
0,145
0,146
0,147
0,148
0,149
0,150
0,151
0,152
0,153
0,154
0,155
0,156
0,157
0,158
0,159
0,160
0,161
0,162
0,163
0,164
0,165
0,166
0,167
0,168
0,169
0,170
0,171
0,172
0,173
0,174
0,175
0,176
0,177
0,178
0,179
0,180
0,181
0,182
0,183
0,184
0,185
0,186
0,187
0,188
0,189
0,190
0,191
0,192
0,193
0,194
0,195
0,196
0,197
0,198
0,199
0,200
0,201
0,202
0,203
0,204
0,205
0,206
0,207
0,208
0,209
0,210
0,211
0,212
0,213
0,214
0,215
0,216
0,217
0,218
0,219
0,220
0,221
0,222
0,223
0,224
0,225
0,226
0,227
0,228
0,229
0,230
0,231
0,232
0,233
0,234
0,235
0,236
0,237
0,238
0,239
0,240
0,241
0,242
0,243
0,244
0,245
0,246
0,247
0,248
0,249
0,250
0,251
0,252
0,253
0,254
0,255
0,256
0,257
0,258
0,259
0,260
0,261
0,262
0,263
0,264
0,265
0,266
0,267
0,268
0,269
0,270
0,271
0,272
0,273
0,274
0,275
0,276
0,277
0,278
0,279
0,280
0,281
0,282
0,283
0,284
0,285
0,286
0,287
0,288
0,289
0,290
0,291
0,292
0,293
0,294
0,295
0,296
0,297
0,298
0,299
0,300
0,301
0,302
0,303
0,304
0,305
0,306
0,307
0,308
0,309
0,310
0,311
0,312
0,313
0,314
0,315
0,316
0,317
0,318
0,319
0,320
0,321
0,322
0,323
0,324
0,325
0,326
0,327
0,328
0,329
0,330
0,331
0,332
0,333
0,334
0,335
0,336
0,337
0,338
0,339
0,340
0,341
0,342
0,343
0,344
0,345
0,346
0,347
0,348
0,349
0,350
0,351
0,352
0,353
0,354
0,355
0,356
0,357
0,358
0,359
0,360
0,361
0,362
0,363
0,364
0,365
0,366
0,367
0,368
0,369
0,370
0,371
0,372
0,373
0,374
0,375
0,376
0,377
0,378
0,379
0,380
0,381
0,382
0,383
0,384
0,385
0,386
0,387
0,388
0,389
0,390
0,391
0,392
0,393
0,394
0,395
0,396
0,397
0,398
0,399
0,400
0,401
0,402
0,403
0,404
0,405
0,406
0,407
0,408
0,409
0,410
0,411
0,412
0,413
0,414
0,415
0,416
0,417
0,418
0,419
0,420
0,421
0,422
0,423
0,424
0,425
0,426
0,427
0,428
0,429
0,430
0,431
0,432
0,433
0,434
0,435
0,436
0,437
0,438
0,439
0,440
0,441
0,442
0,443
0,444
0,445
0,446
0,447
0,448
0,449
0,450
0,451
0,452
0,453
0,454
0,455
0,456
0,457
0,458
0,459
0,460
0,461
0,462
0,463
0,464
0,465
0,466
0,467
0,468
0,469
0,470
0,471
0,472
0,473
0,474
0,475
0,476
0,477
0,478
0,479
0,480
0,481
0,482
0,483
0,484
0,485
0,486
0,487
0,488
0,489
0,490
0,491
0,492
0,493
0,494
0,495
0,496
0,497
0,498
0,499
150,500
150,501
150,502
150,503
150,504
150,505
150,506
150,507
150,508
150,509
150,510
150,511
150,512
150,513
150,514
150,515
150,516
150,517
150,518
150,519
150,520
150,521
150,522
150,523
150,524
150,525
150,526
150,527
150,528
150,529
150,530
150,531
150,532
150,533
150,534
150,535
150,536
150,537
150,538
150,539
150,540
150,541
150,542
150,543
150,544
150,545
150,546
150,547
150,548
150,549
150,550
150,551
150,552
150,553
150,554
150,555
150,556
150,557
150,558
150,559
150,560
150,561
150,562
150,563
150,564
150,565
150,566
150,567
150,568
150,569
150,570
150,571
150,572
150,573
150,574
150,575
150,576
150,577
150,578
150,579
150,580
150,581
150,582
150,583
150,584
150,585
150,586
150,587
150,588
150,589
150,590
150,591
150,592
150,593
150,594
150,595
150,596
150,597
150,598
150,599
150,600
150,601
150,602
150,603
150,604
150,605
150,606
150,607
150,608
150,609
150,610
150,611
150,612
150,613
150,614
150,615
150,616
150,617
150,618
150,619
150,620
150,621
150,622
150,623
150,624
150,625
150,626
150,627
150,628
150,629
150,630
150,631
150,632
150,633
150,634
150,635
150,636
150,637
150,638
150,639
150,640
150,641
150,642
150,643
150,644
150,645
150,646
150,647
150,648
150,649
150,650
150,651
150,652
150,653
150,654
150,655
150,656
150,657
150,658
150,659
150,660
150,661
150,662
150,663
150,664
150,665
150,666
150,667
150,668
150,669
150,670
150,671
150,672
150,673
150,674
150,675
150,676
150,677
150,678
150,679
150,680
150,681
150,682
150,683
150,684
150,685
150,686
150,687
150,688
150,689
150,690
150,691
150,692
150,693
150,694
150,695
150,696
150,697
150,698
150,699
150,700
150,701
150,702
150,703
150,704
150,705
150,706
150,707
150,708
150,709
150,710
150,711
150,712
150,713
150,714
150,715
150,716
150,717
150,718
150,719
150,720
150,721
150,722
150,723
150,724
150,725
150,726
150,727
150,728
150,729
150,730
150,731
150,732
150,733
150,734
150,735
150,736
150,737
150,738
150,739
150,740
150,741
150,742
150,743
150,744
150,745
150,746
150,747
150,748
150,749
150,750
150,751
150,752
150,753
150,754
150,755
150,756
150,757
150,758
150,759
150,760
150,761
150,762
150,763
150,764
150,765
150,766
150,767
150,768
150,769
150,770
150,771
150,772
150,773
150,774
150,775
150,776
150,777
150,778
150,779
150,780
150,781
150,782
150,783
150,784
150,785
150,786
150,787
150,788
150,789
150,790
150,791
150,792
150,793
150,794
150,795
150,796
150,797
150,798
150,799
150,800
150,801
150,802
150,803
150,804
150,805
150,806
150,807
150,808
150,809
150,810
150,811
150,812
150,813
150,814
150,815
150,816
150,817
150,818
150,819
150,820
150,821
150,822
150,823
150,824
150,825
150,826
150,827
150,828
150,829
150,830
150,831
150,832
150,833
150,834
150,835
150,836
150,837
150,838
150,839
150,840
150,841
150,842
150,843
150,844
150,845
150,846
150,847
150,848
150,849
150,850
150,851
150,852
150,853
150,854
150,855
150,856
150,857
150,858
150,859
150,860
150,861
150,862
150,863
150,864
150,865
150,866
150,867
150,868
150,869
150,870
150,871
150,872
150,873
150,874
150,875
150,876
150,877
150,878
150,879
150,880
150,881
150,882
150,883
150,884
150,885
150,886
150,887
150,888
150,889
150,890
150,891
150,892
150,893
150,894
150,895
150,896
150,897
150,898
150,899
150,900
150,901
150,902
150,903
150,904
150,905
150,906
150,907
150,908
150,909
150,910
150,911
150,912
150,913
150,914
150,915
150,916
150,917
150,918
150,919
150,920
150,921
150,922
150,923
150,924
150,925
150,926
150,927
150,928
150,929
150,930
150,931
150,932
150,933
150,934
150,935
150,936
150,937
150,938
150,939
150,940
150,941
150,942
150,943
150,944
150,945
150,946
150,947
150,948
150,949
150,950
150,951
150,952
150,953
150,954
150,955
150,956
150,957
150,958
150,959
150,960
150,961
150,962
150,963
150,964
150,965
150,966
150,967
150,968
150,969
150,970
150,971
150,972
150,973
150,974
150,975
150,976
150,977
150,978
150,979
150,980
150,981
150,982
150,983
150,984
150,985
150,986
150,987
150,988
150,989
150,990
150,991
150,992
150,993
150,994
150,995
150,996
150,997
150,998
150,999
0,1000
0,1001
0,1002
0,1003
0,1004
0,1005
0,1006
0,1007
0,1008
0,1009
0,1010
0,1011
0,1012
0,1013
0,1014
0,1015
0,1016
0,1017
0,1018
0,1019
0,1020
0,1021
0,1022
0,1023
0,1024
0,1025
0,1026
0,1027
0,1028
0,1029
0,1030
0,1031
0,1032
0,1033
0,1034
0,1035
0,1036
0,1037
0,1038
0,1039
0,1040
0,1041
0,1042
0,1043
0,1044
0,1045
0,1046
0,1047
0,1048
0,1049
0,1050
0,1051
0,1052
0,1053
0,1054
0,1055
0,1056
0,1057
0,1058
0,1059
0,1060
0,1061
0,1062
0,1063
0,1064
0,1065
0,1066
0,1067
0,1068
0,1069
0,1070
0,1071
0,1072
0,1073
0,1074
0,1075
0,1076
0,1077
0,1078
0,1079
0,1080
0,1081
0,1082
0,1083
0,1084
0,1085
0,1086
0,1087
0,1088
0,1089
0,1090
0,1091
0,1092
0,1093
0,1094
0,1095
0,1096
0,1097
0,1098
0,1099
0,1100
0,1101
0,1102
0,1103
0,1104
0,1105
0,1106
0,1107
0,1108
0,1109
0,1110
0,1111
0,1112
0,1113
0,1114
0,1115
0,1116
0,1117
0,1118
0,1119
0,1120
0,1121
0,1122
0,1123
0,1124
0,1125
0,1126
0,1127
0,1128
0,1129
0,1130
0,1131
0,1132
0,1133
0,1134
0,1135
0,1136
0,1137
0,1138
0,1139
0,1140
0,1141
0,1142
0,1143
0,1144
0,1145
0,1146
0,1147
0,1148
0,1149
0,1150
0,1151
0,1152
0,1153
0,1154
0,1155
0,1156
0,1157
0,1158
0,1159
0,1160
0,1161
0,1162
0,1163
0,1164
0,1165
0,1166
0,1167
0,1168
0,1169
0,1170
0,1171
0,1172
0,1173
0,1174
0,1175
0,1176
0,1177
0,1178
0,1179
0,1180
0,1181
0,1182
0,1183
0,1184
0,1185
0,1186
0,1187
0,1188
0,1189
0,1190
0,1191
0,1192
0,1193
0,1194
0,1195
0,1196
0,1197
0,1198
0,1199
0,1200
0,1201
0,1202
0,1203
0,1204
0,1205
0,1206
0,1207
0,1208
0,1209
0,1210
0,1211
0,1212
0,1213
0,1214
0,1215
0,1216
0,1217
0,1218
0,1219
0,1220
0,1221
0,1222
0,1223
0,1224
0,1225
0,1226
0,1227
0,1228
0,1229
0,1230
0,1231
0,1232
0,1233
0,1234
0,1235
0,1236
0,1237
0,1238
0,1239
0,1240
0,1241
0,1242
0,1243
0,1244
0,1245
0,1246
0,1247
0,1248
0,1249
0,1250
0,1251
0,1252
0,1253
0,1254
0,1255
0,1256
0,1257
0,1258
0,1259
0,1260
0,1261
0,1262
0,1263
0,1264
0,1265
0,1266
0,1267
0,1268
0,1269
0,1270
0,1271
0,1272
0,1273
0,1274
0,1275
0,1276
0,1277
0,1278
0,1279
0,1280
0,1281
0,1282
0,1283
0,1284
0,1285
0,1286
0,1287
0,1288
0,1289
0,1290
0,1291
0,1292
0,1293
0,1294
0,1295
0,1296
0,1297
0,1298
0,1299
0,1300
0,1301
0,1302
0,1303
0,1304
0,1305
0,1306
0,1307
0,1308
0,1309
0,1310
0,1311
0,1312
0,1313
0,1314
0,1315
0,1316
0,1317
0,1318
0,1319
0,1320
0,1321
0,1322
0,1323
0,1324
0,1325
0,1326
0,1327
0,1328
0,1329
0,1330
0,1331
0,1332
0,1333
0,1334
0,1335
0,1336
0,1337
0,1338
0,1339
0,1340
0,1341
0,1342
0,1343
0,1344
0,1345
0,1346
0,1347
0,1348
0,1349
0,1350
0,1351
0,1352
0,1353
0,1354
0,1355
0,1356
0,1357
0,1358
0,1359
0,1360
0,1361
0,1362
0,1363
0,1364
0,1365
0,1366
0,1367
0,1368
0,1369
0,1370
0,1371
0,1372
0,1373
0,1374
0,1375
0,1376
0,1377
0,1378
0,1379
0,1380
0,1381
0,1382
0,1383
0,1384
0,1385
0,1386
0,1387
0,1388
0,1389
0,1390
0,1391
0,1392
0,1393
0,1394
0,1395
0,1396
0,1397
0,1398
0,1399
0,1400
0,1401
0,1402
0,1403
0,1404
0,1405
0,1406
0,1407
0,1408
0,1409
0,1410
0,1411
0,1412
0,1413
0,1414
0,1415
0,1416
0,1417
0,1418
0,1419
0,1420
0,1421
0,1422
0,1423
0,1424
0,1425
0,1426
0,1427
0,1428
0,1429
0,1430
0,1431
0,1432
0,1433
0,1434
0,1435
0,1436
0,1437
0,1438
0,1439
0,1440
0,1441
0,1442
0,1443
0,1444
0,1445
0,1446
0,1447
0,1448
0,1449
0,1450
0,1451
0,1452
0,1453
0,1454
0,1455
0,1456
0,1457
0,1458
0,1459
0,1460
0,1461
0,1462
0,1463
0,1464
0,1465
0,1466
0,1467
0,1468
0,1469
0,1470
0,1471
0,1472
0,1473
0,1474
0,1475
0,1476
0,1477
0,1478
0,1479
0,1480
0,1481
0,1482
0,1483
0,1484
0,1485
0,1486
0,1487
0,1488
0,1489
0,1490
0,1491
0,1492
0,1493
0,1494
0,1495
0,1496
0,1497
0,1498
0,1499
150,1500
150,1501
150,1502
150,1503
150,1504
150,1505
150,1506
150,1507
150,1508
150,1509
150,1510
150,1511
150,1512
150,1513
150,1514
150,1515
150,1516
150,1517
150,1518
150,1519
150,1520
150,1521
150,1522
150,1523
150,1524
150,1525
150,1526
150,1527
150,1528
150,1529
150,1530
150,1531
150,1532
150,1533
150,1534
150,1535
150,1536
150,1537
150,1538
150,1539
150,1540
150,1541
150,1542
150,1543
150,1544
150,1545
150,1546
150,1547
150,1548
150,1549
150,1550
150,1551
150,1552
150,1553
150,1554
150,1555
150,1556
150,1557
150,1558
150,1559
150,1560
150,1561
150,1562
150,1563
150,1564
150,1565
150,1566
150,1567
150,1568
150,1569
150,1570
150,1571
150,1572
150,1573
150,1574
150,1575
150,1576
150,1577
150,1578
150,1579
150,1580
150,1581
150,1582
150,1583
150,1584
150,1585
150,1586
150,1587
150,1588
150,1589
150,1590
150,1591
150,1592
150,1593
150,1594
150,1595
150,1596
150,1597
150,1598
150,1599
150,1600
150,1601
150,1602
150,1603
150,1604
150,1605
150,1606
150,1607
150,1608
150,1609
150,1610
150,1611
150,1612
150,1613
150,1614
150,1615
150,1616
150,1617
150,1618
150,1619
150,1620
150,1621
150,1622
150,1623
150,1624
150,1625
150,1626
150,1627
150,1628
150,1629
150,1630
150,1631
150,1632
150,1633
150,1634
150,1635
150,1636
150,1637
150,1638
150,1639
150,1640
150,1641
150,1642
150,1643
150,1644
150,1645
150,1646
150,1647
150,1648
150,1649
150,1650
150,1651
150,1652
150,1653
150,1654
150,1655
150,1656
150,1657
150,1658
150,1659
150,1660
150,1661
150,1662
150,1663
150,1664
150,1665
150,1666
150,1667
150,1668
150,1669
150,1670
150,1671
150,1672
150,1673
150,1674
150,1675
150,1676
150,1677
150,1678
150,1679
150,1680
150,1681
150,1682
150,1683
150,1684
150,1685
150,1686
150,1687
150,1688
150,1689
150,1690
150,1691
150,1692
150,1693
150,1694
150,1695
150,1696
150,1697
150,1698
150,1699
150,1700
150,1701
150,1702
150,1703
150,1704
150,1705
150,1706
150,1707
150,1708
150,1709
150,1710
150,1711
150,1712
150,1713
150,1714
150,1715
150,1716
150,1717
150,1718
150,1719
150,1720
150,1721
150,1722
150,1723
150,1724
150,1725
150,1726
150,1727
150,1728
150,1729
150,1730
150,1731
150,1732
150,1733
150,1734
150,1735
150,1736
150,1737
150,1738
150,1739
150,1740
150,1741
150,1742
150,1743
150,1744
150,1745
150,1746
150,1747
150,1748
150,1749
150,1750
150,1751
150,1752
150,1753
150,1754
150,1755
150,1756
150,1757
150,1758
150,1759
150,1760
150,1761
150,1762
150,1763
150,1764
150,1765
150,1766
150,1767
150,1768
150,1769
150,1770
150,1771
150,1772
150,1773
150,1774
150,1775
150,1776
150,1777
150,1778
150,1779
150,1780
150,1781
150,1782
150,1783
150,1784
150,1785
150,1786
150,1787
150,1788
150,1789
150,1790
150,1791
150,1792
150,1793
150,1794
150,1795
150,1796
150,1797
150,1798
150,1799
150,1800
150,1801
150,1802
150,1803
150,1804
150,1805
150,1806
150,1807
150,1808
150,1809
150,1810
150,1811
150,1812
150,1813
150,1814
150,1815
150,1816
150,1817
150,1818
150,1819
150,1820
150,1821
150,1822
150,1823
150,1824
150,1825
150,1826
150,1827
150,1828
150,1829
150,1830
150,1831
150,1832
150,1833
150,1834
150,1835
150,1836
150,1837
150,1838
150,1839
150,1840
150,1841
150,1842
150,1843
150,1844
150,1845
150,1846
150,1847
150,1848
150,1849
150,1850
150,1851
150,1852
150,1853
150,1854
150,1855
150,1856
150,1857
150,1858
150,1859
150,1860
150,1861
150,1862
150,1863
150,1864
150,1865
150,1866
150,1867
150,1868
150,1869
150,1870
150,1871
150,1872
150,1873
150,1874
150,1875
150,1876
150,1877
150,1878
150,1879
150,1880
150,1881
150,1882
150,1883
150,1884
150,1885
150,1886
150,1887
150,1888
150,1889
150,1890
150,1891
150,1892
150,1893
150,1894
150,1895
150,1896
150,1897
150,1898
150,1899
150,1900
150,1901
150,1902
150,1903
150,1904
150,1905
150,1906
150,1907
150,1908
150,1909
150,1910
150,1911
150,1912
150,1913
150,1914
150,1915
150,1916
150,1917
150,1918
150,1919
150,1920
150,1921
150,1922
150,1923
150,1924
150,1925
150,1926
150,1927
150,1928
150,1929
150,1930
150,1931
150,1932
150,1933
150,1934
150,1935
150,1936
150,1937
150,1938
150,1939
150,1940
150,1941
150,1942
150,1943
150,1944
150,1945
150,1946
150,1947
150,1948
150,1949
150,1950
150,1951
150,1952
150,1953
150,1954
150,1955
150,1956
150,1957
150,1958
150,1959
150,1960
150,1961
150,1962
150,1963
150,1964
150,1965
150,1966
150,1967
150,1968
150,1969
150,1970
150,1971
150,1972
150,1973
150,1974
150,1975
150,1976
150,1977
150,1978
150,1979
150,1980
150,1981
150,1982
150,1983
150,1984
150,1985
150,1986
150,1987
150,1988
150,1989
150,1990
150,1991
150,1992
150,1993
150,1994
150,1995
150,1996
150,1997
150,1998
150,1999
0,2000
0,2001
0,2002
0,2003
0,2004
0,2005
0,2006
0,2007
0,2008
0,2009
0,2010
0,2011
0,2012
0,2013
0,2014
0,2015
0,2016
0,2017
0,2018
0,2019
0,2020
0,2021
0,2022
0,2023
0,2024
0,2025
0,2026
0,2027
0,2028
0,2029
0,2030
0,2031
0,2032
0,2033
0,2034
0,2035
0,2036
0,2037
0,2038
0,2039
0,2040
0,2041
0,2042
0,2043
0,2044
0,2045
0,2046
0,2047
0,2048
0,2049
0,2050
0,2051
0,2052
0,2053
0,2054
0,2055
0,2056
0,2057
0,2058
0,2059
0,2060
0,2061
0,2062
0,2063
0,2064
0,2065
0,2066
0,2067
0,2068
0,2069
0,2070
0,2071
0,2072
0,2073
0,2074
0,2075
0,2076
0,2077
0,2078
0,2079
0,2080
0,2081
0,2082
0,2083
0,2084
0,2085
0,2086
0,2087
0,2088
0,2089
0,2090
0,2091
0,2092
0,2093
0,2094
0,2095
0,2096
0,2097
0,2098
0,2099
0,2100
0,2101
0,2102
0,2103
0,2104
0,2105
0,2106
0,2107
0,2108
0,2109
0,2110
0,2111
0,2112
0,2113
0,2114
0,2115
0,2116
0,2117
0,2118
0,2119
0,2120
0,2121
0,2122
0,2123
0,2124
0,2125
0,2126
0,2127
0,2128
0,2129
0,2130
0,2131
0,2132
0,2133
0,2134
0,2135
0,2136
0,2137
0,2138
0,2139
0,2140
0,2141
0,2142
0,2143
0,2144
0,2145
0,2146
0,2147
0,2148
0,2149
0,2150
0,2151
0,2152
0,2153
0,2154
0,2155
0,2156
0,2157
0,2158
0,2159
0,2160
0,2161
0,2162
0,2163
0,2164
0,2165
0,2166
0,2167
0,2168
0,2169
0,2170
0,2171
0,2172
0,2173
0,2174
0,2175
0,2176
0,2177
0,2178
0,2179
0,2180
0,2181
0,2182
0,2183
0,2184
0,2185
0,2186
0,2187
0,2188
0,2189
0,2190
0,2191
0,2192
0,2193
0,2194
0,2195
0,2196
0,2197
0,2198
0,2199
0,2200
0,2201
0,2202
0,2203
0,2204
0,2205
0,2206
0,2207
0,2208
0,2209
0,2210
0,2211
0,2212
0,2213
0,2214
0,2215
0,2216
0,2217
0,2218
0,2219
0,2220
0,2221
0,2222
0,2223
0,2224
0,2225
0,2226
0,2227
0,2228
0,2229
0,2230
0,2231
0,2232
0,2233
0,2234
0,2235
0,2236
0,2237
0,2238
0,2239
0,2240
0,2241
0,2242
0,2243
0,2244
0,2245
0,2246
0,2247
0,2248
0,2249
0,2250
0,2251
0,2252
0,2253
0,2254
0,2255
0,2256
0,2257
0,2258
0,2259
0,2260
0,2261
0,2262
0,2263
0,2264
0,2265
0,2266
0,2267
0,2268
0,2269
0,2270
0,2271
0,2272
0,2273
0,2274
0,2275
0,2276
0,2277
0,2278
0,2279
0,2280
0,2281
0,2282
0,2283
0,2284
0,2285
0,2286
0,2287
0,2288
0,2289
0,2290
0,2291
0,2292
0,2293
0,2294
0,2295
0,2296
0,2297
0,2298
0,2299
0,2300
0,2301
0,2302
0,2303
0,2304
0,2305
0,2306
0,2307
0,2308
0,2309
0,2310
0,2311
0,2312
0,2313
0,2314
0,2315
0,2316
0,2317
0,2318
0,2319
0,2320
0,2321
0,2322
0,2323
0,2324
0,2325
0,2326
0,2327
0,2328
0,2329
0,2330
0,2331
0,2332
0,2333
0,2334
0,2335
0,2336
0,2337
0,2338
0,2339
0,2340
0,2341
0,2342
0,2343
0,2344
0,2345
0,2346
0,2347
0,2348
0,2349
0,2350
0,2351
0,2352
0,2353
0,2354
0,2355
0,2356
0,2357
0,2358
0,2359
0,2360
0,2361
0,2362
0,2363
0,2364
0,2365
0,2366
0,2367
0,2368
0,2369
0,2370
0,2371
0,2372
0,2373
0,2374
0,2375
0,2376
0,2377
0,2378
0,2379
0,2380
0,2381
0,2382
0,2383
0,2384
0,2385
0,2386
0,2387
0,2388
0,2389
0,2390
0,2391
0,2392
0,2393
0,2394
0,2395
0,2396
0,2397
0,2398
0,2399
0,2400
0,2401
0,2402
0,2403
0,2404
0,2405
0,2406
0,2407
0,2408
0,2409
0,2410
0,2411
0,2412
0,2413
0,2414
0,2415
0,2416
0,2417
0,2418
0,2419
0,2420
0,2421
0,2422
0,2423
0,2424
0,2425
0,2426
0,2427
0,2428
0,2429
0,2430
0,2431
0,2432
0,2433
0,2434
0,2435
0,2436
0,2437
0,2438
0,2439
0,2440
0,2441
0,2442
0,2443
0,2444
0,2445
0,2446
0,2447
0,2448
0,2449
0,2450
0,2451
0,2452
0,2453
0,2454
0,2455
0,2456
0,2457
0,2458
0,2459
0,2460
0,2461
0,2462
0,2463
0,2464
0,2465
0,2466
0,2467
0,2468
0,2469
0,2470
0,2471
0,2472
0,2473
0,2474
0,2475
0,2476
0,2477
0,2478
0,2479
0,2480
0,2481
0,2482
0,2483
0,2484
0,2485
0,2486
0,2487
0,2488
0,2489
0,2490
0,2491
0,2492
0,2493
0,2494
0,2495
0,2496
0,2497
0,2498
0,2499
150,2500
150,2501
150,2502
150,2503
150,2504
150,2505
150,2506
150,2507
150,2508
150,2509
150,2510
150,2511
150,2512
150,2513
150,2514
150,2515
150,2516
150,2517
150,2518
150,2519
150,2520
150,2521
150,2522
150,2523
150,2524
150,2525
150,2526
150,2527
150,2528
150,2529
150,2530
150,2531
150,2532
150,2533
150,2534
150,2535
150,2536
150,2537
150,2538
150,2539
150,2540
150,2541
150,2542
150,2543
150,2544
150,2545
150,2546
150,2547
150,2548
150,2549
150,2550
150,2551
150,2552
150,2553
150,2554
150,2555
150,2556
150,2557
150,2558
150,2559
150,2560
150,2561
150,2562
150,2563
150,2564
150,2565
150,2566
150,2567
150,2568
150,2569
150,2570
150,2571
150,2572
150,2573
150,2574
150,2575
150,2576
150,2577
150,2578
150,2579
150,2580
150,2581
150,2582
150,2583
150,2584
150,2585
150,2586
150,2587
150,2588
150,2589
150,2590
150,2591
150,2592
150,2593
150,2594
150,2595
150,2596
150,2597
150,2598
150,2599
150,2600
150,2601
150,2602
150,2603
150,2604
150,2605
150,2606
150,2607
150,2608
150,2609
150,2610
150,2611
150,2612
150,2613
150,2614
150,2615
150,2616
150,2617
150,2618
150,2619
150,2620
150,2621
150,2622
150,2623
150,2624
150,2625
150,2626
150,2627
150,2628
150,2629
150,2630
150,2631
150,2632
150,2633
150,2634
150,2635
150,2636
150,2637
150,2638
150,2639
150,2640
150,2641
150,2642
150,2643
150,2644
150,2645
150,2646
150,2647
150,2648
150,2649
150,2650
150,2651
150,2652
150,2653
150,2654
150,2655
150,2656
150,2657
150,2658
150,2659
150,2660
150,2661
150,2662
150,2663
150,2664
150,2665
150,2666
150,2667
150,2668
150,2669
150,2670
150,2671
150,2672
150,2673
150,2674
150,2675
150,2676
150,2677
150,2678
150,2679
150,2680
150,2681
150,2682
150,2683
150,2684
150,2685
150,2686
150,2687
150,2688
150,2689
150,2690
150,2691
150,2692
150,2693
150,2694
150,2695
150,2696
150,2697
150,2698
150,2699
150,2700
150,2701
150,2702
150,2703
150,2704
150,2705
150,2706
150,2707
150,2708
150,2709
150,2710
150,2711
150,2712
150,2713
150,2714
150,2715
150,2716
150,2717
150,2718
150,2719
150,2720
150,2721
150,2722
150,2723
150,2724
150,2725
150,2726
150,2727
150,2728
150,2729
150,2730
150,2731
150,2732
150,2733
150,2734
150,2735
150,2736
150,2737
150,2738
150,2739
150,2740
150,2741
150,2742
150,2743
150,2744
150,2745
150,2746
150,2747
150,2748
150,2749
150,2750
150,2751
150,2752
150,2753
150,2754
150,2755
150,2756
150,2757
150,2758
150,2759
150,2760
150,2761
150,2762
150,2763
150,2764
150,2765
150,2766
150,2767
150,2768
150,2769
150,2770
150,2771
150,2772
150,2773
150,2774
150,2775
150,2776
150,2777
150,2778
150,2779
150,2780
150,2781
150,2782
150,2783
150,2784
150,2785
150,2786
150,2787
150,2788
150,2789
150,2790
150,2791
150,2792
150,2793
150,2794
150,2795
150,2796
150,2797
150,2798
150,2799
150,2800
150,2801
150,2802
150,2803
150,2804
150,2805
150,2806
150,2807
150,2808
150,2809
150,2810
150,2811
150,2812
150,2813
150,2814
150,2815
150,2816
150,2817
150,2818
150,2819
150,2820
150,2821
150,2822
150,2823
150,2824
150,2825
150,2826
150,2827
150,2828
150,2829
150,2830
150,2831
150,2832
150,2833
150,2834
150,2835
150,2836
150,2837
150,2838
150,2839
150,2840
150,2841
150,2842
150,2843
150,2844
150,2845
150,2846
150,2847
150,2848
150,2849
150,2850
150,2851
150,2852
150,2853
150,2854
150,2855
150,2856
150,2857
150,2858
150,2859
150,2860
150,2861
150,2862
150,2863
150,2864
150,2865
150,2866
150,2867
150,2868
150,2869
150,2870
150,2871
150,2872
150,2873
150,2874
150,2875
150,2876
150,2877
150,2878
150,2879
150,2880
150,2881
150,2882
150,2883
150,2884
150,2885
150,2886
150,2887
150,2888
150,2889
150,2890
150,2891
150,2892
150,2893
150,2894
150,2895
150,2896
150,2897
150,2898
150,2899
150,2900
150,2901
150,2902
150,2903
150,2904
150,2905
150,2906
150,2907
150,2908
150,2909
150,2910
150,2911
150,2912
150,2913
150,2914
150,2915
150,2916
150,2917
150,2918
150,2919
150,2920
150,2921
150,2922
150,2923
150,2924
150,2925
150,2926
150,2927
150,2928
150,2929
150,2930
150,2931
150,2932
150,2933
150,2934
150,2935
150,2936
150,2937
150,2938
150,2939
150,2940
150,2941
150,2942
150,2943
150,2944
150,2945
150,2946
150,2947
150,2948
150,2949
150,2950
150,2951
150,2952
150,2953
150,2954
150,2955
150,2956
150,2957
150,2958
150,2959
150,2960
150,2961
150,2962
150,2963
150,2964
150,2965
150,2966
150,2967
150,2968
150,2969
150,2970
150,2971
150,2972
150,2973
150,2974
150,2975
150,2976
150,2977
150,2978
150,2979
150,2980
150,2981
150,2982
150,2983
150,2984
150,2985
150,2986
150,2987
150,2988
150,2989
150,2990
150,2991
150,2992
150,2993
150,2994
150,2995
150,2996
150,2997
150,2998
150,2999
0,3000
0,3001
0,3002
0,3003
0,3004
0,3005
0,3006
0,3007
0,3008
0,3009
0,3010
0,3011
0,3012
0,3013
0,3014
0,3015
0,3016
0,3017
0,3018
0,3019
0,3020
0,3021
0,3022
0,3023
0,3024
0,3025
0,3026
0,3027
0,3028
0,3029
0,3030
0,3031
0,3032
0,3033
0,3034
0,3035
0,3036
0,3037
0,3038
0,3039
0,3040
0,3041
0,3042
0,3043
0,3044
0,3045
0,3046
0,3047
0,3048
0,3049
0,3050
0,3051
0,3052
0,3053
0,3054
0,3055
0,3056
0,3057
0,3058
0,3059
0,3060
0,3061
0,3062
0,3063
0,3064
0,3065
0,3066
0,3067
0,3068
0,3069
0,3070
0,3071
0,3072
0,3073
0,3074
0,3075
0,3076
0,3077
0,3078
0,3079
0,3080
0,3081
0,3082
0,3083
0,3084
0,3085
0,3086
0,3087
0,3088
0,3089
0,3090
0,3091
0,3092
0,3093
0,3094
0,3095
0,3096
0,3097
0,3098
0,3099
0,3100
0,3101
0,3102
0,3103
0,3104
0,3105
0,3106
0,3107
0,3108
0,3109
0,3110
0,3111
0,3112
0,3113
0,3114
0,3115
0,3116
0,3117
0,3118
0,3119
0,3120
0,3121
0,3122
0,3123
0,3124
0,3125
0,3126
0,3127
0,3128
0,3129
0,3130
0,3131
0,3132
0,3133
0,3134
0,3135
0,3136
0,3137
0,3138
0,3139
0,3140
0,3141
0,3142
0,3143
0,3144
0,3145
0,3146
0,3147
0,3148
0,3149
0,3150
0,3151
0,3152
0,3153
0,3154
0,3155
0,3156
0,3157
0,3158
0,3159
0,3160
0,3161
0,3162
0,3163
0,3164
0,3165
0,3166
0,3167
0,3168
0,3169
0,3170
0,3171
0,3172
0,3173
0,3174
0,3175
0,3176
0,3177
0,3178
0,3179
0,3180
0,3181
0,3182
0,3183
0,3184
0,3185
0,3186
0,3187
0,3188
0,3189
0,3190
0,3191
0,3192
0,3193
0,3194
0,3195
0,3196
0,3197
0,3198
0,3199
0,3200
0,3201
0,3202
0,3203
0,3204
0,3205
0,3206
0,3207
0,3208
0,3209
0,3210
0,3211
0,3212
0,3213
0,3214
0,3215
0,3216
0,3217
0,3218
0,3219
0,3220
0,3221
0,3222
0,3223
0,3224
0,3225
0,3226
0,3227
0,3228
0,3229
0,3230
0,3231
0,3232
0,3233
0,3234
0,3235
0,3236
0,3237
0,3238
0,3239
0,3240
0,3241
0,3242
0,3243
0,3244
0,3245
0,3246
0,3247
0,3248
0,3249
0,3250
0,3251
0,3252
0,3253
0,3254
0,3255
0,3256
0,3257
0,3258
0,3259
0,3260
0,3261
0,3262
0,3263
0,3264
0,3265
0,3266
0,3267
0,3268
0,3269
0,3270
0,3271
0,3272
0,3273
0,3274
0,3275
0,3276
0,3277
0,3278
0,3279
0,3280
0,3281
0,3282
0,3283
0,3284
0,3285
0,3286
0,3287
0,3288
0,3289
0,3290
0,3291
0,3292
0,3293
0,3294
0,3295
0,3296
0,3297
0,3298
0,3299
0,3300
0,3301
0,3302
0,3303
0,3304
0,3305
0,3306
0,3307
0,3308
0,3309
0,3310
0,3311
0,3312
0,3313
0,3314
0,3315
0,3316
0,3317
0,3318
0,3319
0,3320
0,3321
0,3322
0,3323
0,3324
0,3325
0,3326
0,3327
0,3328
0,3329
0,3330
0,3331
0,3332
0,3333
0,3334
0,3335
0,3336
0,3337
0,3338
0,3339
0,3340
0,3341
0,3342
0,3343
0,3344
0,3345
0,3346
0,3347
0,3348
0,3349
0,3350
0,3351
0,3352
0,3353
0,3354
0,3355
0,3356
0,3357
0,3358
0,3359
0,3360
0,3361
0,3362
0,3363
0,3364
0,3365
0,3366
0,3367
0,3368
0,3369
0,3370
0,3371
0,3372
0,3373
0,3374
0,3375
0,3376
0,3377
0,3378
0,3379
0,3380
0,3381
0,3382
0,3383
0,3384
0,3385
0,3386
0,3387
0,3388
0,3389
0,3390
0,3391
0,3392
0,3393
0,3394
0,3395
0,3396
0,3397
0,3398
0,3399
0,3400
0,3401
0,3402
0,3403
0,3404
0,3405
0,3406
0,3407
0,3408
0,3409
0,3410
0,3411
0,3412
0,3413
0,3414
0,3415
0,3416
0,3417
0,3418
0,3419
0,3420
0,3421
0,3422
0,3423
0,3424
0,3425
0,3426
0,3427
0,3428
0,3429
0,3430
0,3431
0,3432
0,3433
0,3434
0,3435
0,3436
0,3437
0,3438
0,3439
0,3440
0,3441
0,3442
0,3443
0,3444
0,3445
0,3446
0,3447
0,3448
0,3449
0,3450
0,3451
0,3452
0,3453
0,3454
0,3455
0,3456
0,3457
0,3458
0,3459
0,3460
0,3461
0,3462
0,3463
0,3464
0,3465
0,3466
0,3467
0,3468
0,3469
0,3470
0,3471
0,3472
0,3473
0,3474
0,3475
0,3476
0,3477
0,3478
0,3479
0,3480
0,3481
0,3482
0,3483
0,3484
0,3485
0,3486
0,3487
0,3488
0,3489
0,3490
0,3491
0,3492
0,3493
0,3494
0,3495
0,3496
0,3497
0,3498
0,3499
150,3500
150,3501
150,3502
150,3503
150,3504
150,3505
150,3506
150,3507
150,3508
150,3509
150,3510
150,3511
150,3512
150,3513
150,3514
150,3515
150,3516
150,3517
150,3518
150,3519
150,3520
150,3521
150,3522
150,3523
150,3524
150,3525
150,3526
150,3527
150,3528
150,3529
150,3530
150,3531
150,3532
150,3533
150,3534
150,3535
150,3536
150,3537
150,3538
150,3539
150,3540
150,3541
150,3542
150,3543
150,3544
150,3545
150,3546
150,3547
150,3548
150,3549
150,3550
150,3551
150,3552
150,3553
150,3554
150,3555
150,3556
150,3557
150,3558
150,3559
150,3560
150,3561
150,3562
150,3563
150,3564
150,3565
150,3566
150,3567
150,3568
150,3569
150,3570
150,3571
150,3572
150,3573
150,3574
150,3575
150,3576
150,3577
150,3578
150,3579
150,3580
150,3581
150,3582
150,3583
150,3584
150,3585
150,3586
150,3587
150,3588
150,3589
150,3590
150,3591
150,3592
150,3593
150,3594
150,3595
150,3596
150,3597
150,3598
150,3599
150,3600
150,3601
150,3602
150,3603
150,3604
150,3605
150,3606
150,3607
150,3608
150,3609
150,3610
150,3611
150,3612
150,3613
150,3614
150,3615
150,3616
150,3617
150,3618
150,3619
150,3620
150,3621
150,3622
150,3623
150,3624
150,3625
150,3626
150,3627
150,3628
150,3629
150,3630
150,3631
150,3632
150,3633
150,3634
150,3635
150,3636
150,3637
150,3638
150,3639
150,3640
150,3641
150,3642
150,3643
150,3644
150,3645
150,3646
150,3647
150,3648
150,3649
150,3650
150,3651
150,3652
150,3653
150,3654
150,3655
150,3656
150,3657
150,3658
150,3659
150,3660
150,3661
150,3662
150,3663
150,3664
150,3665
150,3666
150,3667
150,3668
150,3669
150,3670
150,3671
150,3672
150,3673
150,3674
150,3675
150,3676
150,3677
150,3678
150,3679
150,3680
150,3681
150,3682
150,3683
150,3684
150,3685
150,3686
150,3687
150,3688
150,3689
150,3690
150,3691
150,3692
150,3693
150,3694
150,3695
150,3696
150,3697
150,3698
150,3699
150,3700
150,3701
150,3702
150,3703
150,3704
150,3705
150,3706
150,3707
150,3708
150,3709
150,3710
150,3711
150,3712
150,3713
150,3714
150,3715
150,3716
150,3717
150,3718
150,3719
150,3720
150,3721
150,3722
150,3723
150,3724
150,3725
150,3726
150,3727
150,3728
150,3729
150,3730
150,3731
150,3732
150,3733
150,3734
150,3735
150,3736
150,3737
150,3738
150,3739
150,3740
150,3741
150,3742
150,3743
150,3744
150,3745
150,3746
150,3747
150,3748
150,3749
150,3750
150,3751
150,3752
150,3753
150,3754
150,3755
150,3756
150,3757
150,3758
150,3759
150,3760
150,3761
150,3762
150,3763
150,3764
150,3765
150,3766
150,3767
150,3768
150,3769
150,3770
150,3771
150,3772
150,3773
150,3774
150,3775
150,3776
150,3777
150,3778
150,3779
150,3780
150,3781
150,3782
150,3783
150,3784
150,3785
150,3786
150,3787
150,3788
150,3789
150,3790
150,3791
150,3792
150,3793
150,3794
150,3795
150,3796
150,3797
150,3798
150,3799
150,3800
150,3801
150,3802
150,3803
150,3804
150,3805
150,3806
150,3807
150,3808
150,3809
150,3810
150,3811
150,3812
150,3813
150,3814
150,3815
150,3816
150,3817
150,3818
150,3819
150,3820
150,3821
150,3822
150,3823
150,3824
150,3825
150,3826
150,3827
150,3828
150,3829
150,3830
150,3831
150,3832
150,3833
150,3834
150,3835
150,3836
150,3837
150,3838
150,3839
150,3840
150,3841
150,3842
150,3843
150,3844
150,3845
150,3846
150,3847
150,3848
150,3849
150,3850
150,3851
150,3852
150,3853
150,3854
150,3855
150,3856
150,3857
150,3858
150,3859
150,3860
150,3861
150,3862
150,3863
150,3864
150,3865
150,3866
150,3867
150,3868
150,3869
150,3870
150,3871
150,3872
150,3873
150,3874
150,3875
150,3876
150,3877
150,3878
150,3879
150,3880
150,3881
150,3882
150,3883
150,3884
150,3885
150,3886
150,3887
150,3888
150,3889
150,3890
150,3891
150,3892
150,3893
150,3894
150,3895
150,3896
150,3897
150,3898
150,3899
150,3900
150,3901
150,3902
150,3903
150,3904
150,3905
150,3906
150,3907
150,3908
150,3909
150,3910
150,3911
150,3912
150,3913
150,3914
150,3915
150,3916
150,3917
150,3918
150,3919
150,3920
150,3921
150,3922
150,3923
150,3924
150,3925
150,3926
150,3927
150,3928
150,3929
150,3930
150,3931
150,3932
150,3933
150,3934
150,3935
150,3936
150,3937
150,3938
150,3939
150,3940
150,3941
150,3942
150,3943
150,3944
150,3945
150,3946
150,3947
150,3948
150,3949
150,3950
150,3951
150,3952
150,3953
150,3954
150,3955
150,3956
150,3957
150,3958
150,3959
150,3960
150,3961
150,3962
150,3963
150,3964
150,3965
150,3966
150,3967
150,3968
150,3969
150,3970
150,3971
150,3972
150,3973
150,3974
150,3975
150,3976
150,3977
150,3978
150,3979
150,3980
150,3981
150,3982
150,3983
150,3984
150,3985
150,3986
150,3987
150,3988
150,3989
150,3990
150,3991
150,3992
150,3993
150,3994
150,3995
150,3996
150,3997
150,3998
150,3999
0,4000
0,4001
0,4002
0,4003
0,4004
0,4005
0,4006
0,4007
0,4008
0,4009
0,4010
0,4011
0,4012
0,4013
0,4014
0,4015
0,4016
0,4017
0,4018
0,4019
0,4020
0,4021
0,4022
0,4023
0,4024
0,4025
0,4026
0,4027
0,4028
0,4029
0,4030
0,4031
0,4032
0,4033
0,4034
0,4035
0,4036
0,4037
0,4038
0,4039
0,4040
0,4041
0,4042
0,4043
0,4044
0,4045
0,4046
0,4047
0,4048
0,4049
0,4050
0,4051
0,4052
0,4053
0,4054
0,4055
0,4056
0,4057
0,4058
0,4059
0,4060
0,4061
0,4062
0,4063
0,4064
0,4065
0,4066
0,4067
0,4068
0,4069
0,4070
0,4071
0,4072
0,4073
0,4074
0,4075
0,4076
0,4077
0,4078
0,4079
0,4080
0,4081
0,4082
0,4083
0,4084
0,4085
0,4086
0,4087
0,4088
0,4089
0,4090
0,4091
0,4092
0,4093
0,4094
0,4095
0,4096
0,4097
0,4098
0,4099
0,4100
0,4101
0,4102
0,4103
0,4104
0,4105
0,4106
0,4107
0,4108
0,4109
0,4110
0,4111
0,4112
0,4113
0,4114
0,4115
0,4116
0,4117
0,4118
0,4119
0,4120
0,4121
0,4122
0,4123
0,4124
0,4125
0,4126
0,4127
0,4128
0,4129
0,4130
0,4131
0,4132
0,4133
0,4134
0,4135
0,4136
0,4137
0,4138
0,4139
0,4140
0,4141
0,4142
0,4143
0,4144
0,4145
0,4146
0,4147
0,4148
0,4149
0,4150
0,4151
0,4152
0,4153
0,4154
0,4155
0,4156
0,4157
0,4158
0,4159
0,4160
0,4161
0,4162
0,4163
0,4164
0,4165
0,4166
0,4167
0,4168
0,4169
0,4170
0,4171
0,4172
0,4173
0,4174
0,4175
0,4176
0,4177
0,4178
0,4179
0,4180
0,4181
0,4182
0,4183
0,4184
0,4185
0,4186
0,4187
0,4188
0,4189
0,4190
0,4191
0,4192
0,4193
0,4194
0,4195
0,4196
0,4197
0,4198
0,4199
0,4200
0,4201
0,4202
0,4203
0,4204
0,4205
0,4206
0,4207
0,4208
0,4209
0,4210
0,4211
0,4212
0,4213
0,4214
0,4215
0,4216
0,4217
0,4218
0,4219
0,4220
0,4221
0,4222
0,4223
0,4224
0,4225
0,4226
0,4227
0,4228
0,4229
0,4230
0,4231
0,4232
0,4233
0,4234
0,4235
0,4236
0,4237
0,4238
0,4239
0,4240
0,4241
0,4242
0,4243
0,4244
0,4245
0,4246
0,4247
0,4248
0,4249
0,4250
0,4251
0,4252
0,4253
0,4254
0,4255
0,4256
0,4257
0,4258
0,4259
0,4260
0,4261
0,4262
0,4263
0,4264
0,4265
0,4266
0,4267
0,4268
0,4269
0,4270
0,4271
0,4272
0,4273
0,4274
0,4275
0,4276
0,4277
0,4278
0,4279
0,4280
0,4281
0,4282
0,4283
0,4284
0,4285
0,4286
0,4287
0,4288
0,4289
0,4290
0,4291
0,4292
0,4293
0,4294
0,4295
0,4296
0,4297
0,4298
0,4299
0,4300
0,4301
0,4302
0,4303
0,4304
0,4305
0,4306
0,4307
0,4308
0,4309
0,4310
0,4311
0,4312
0,4313
0,4314
0,4315
0,4316
0,4317
0,4318
0,4319
0,4320
0,4321
0,4322
0,4323
0,4324
0,4325
0,4326
0,4327
0,4328
0,4329
0,4330
0,4331
0,4332
0,4333
0,4334
0,4335
0,4336
0,4337
0,4338
0,4339
0,4340
0,4341
0,4342
0,4343
0,4344
0,4345
0,4346
0,4347
0,4348
0,4349
0,4350
0,4351
0,4352
0,4353
0,4354
0,4355
0,4356
0,4357
0,4358
0,4359
0,4360
0,4361
0,4362
0,4363
0,4364
0,4365
0,4366
0,4367
0,4368
0,4369
0,4370
0,4371
0,4372
0,4373
0,4374
0,4375
0,4376
0,4377
0,4378
0,4379
0,4380
0,4381
0,4382
0,4383
0,4384
0,4385
0,4386
0,4387
0,4388
0,4389
0,4390
0,4391
0,4392
0,4393
0,4394
0,4395
0,4396
0,4397
0,4398
0,4399
0,4400
0,4401
0,4402
0,4403
0,4404
0,4405
0,4406
0,4407
0,4408
0,4409
0,4410
0,4411
0,4412
0,4413
0,4414
0,4415
0,4416
0,4417
0,4418
0,4419
0,4420
0,4421
0,4422
0,4423
0,4424
0,4425
0,4426
0,4427
0,4428
0,4429
0,4430
0,4431
0,4432
0,4433
0,4434
0,4435
0,4436
0,4437
0,4438
0,4439
0,4440
0,4441
0,4442
0,4443
0,4444
0,4445
0,4446
0,4447
0,4448
0,4449
0,4450
0,4451
0,4452
0,4453
0,4454
0,4455
0,4456
0,4457
0,4458
0,4459
0,4460
0,4461
0,4462
0,4463
0,4464
0,4465
0,4466
0,4467
0,4468
0,4469
0,4470
0,4471
0,4472
0,4473
0,4474
0,4475
0,4476
0,4477
0,4478
0,4479
0,4480
0,4481
0,4482
0,4483
0,4484
0,4485
0,4486
0,4487
0,4488
0,4489
0,4490
0,4491
0,4492
0,4493
0,4494
0,4495
0,4496
0,4497
0,4498
0,4499
150,4500
150,4501
150,4502
150,4503
150,4504
150,4505
150,4506
150,4507
150,4508
150,4509
150,4510
150,4511
150,4512
150,4513
150,4514
150,4515
150,4516
150,4517
150,4518
150,4519
150,4520
150,4521
150,4522
150,4523
150,4524
150,4525
150,4526
150,4527
150,4528
150,4529
150,4530
150,4531
150,4532
150,4533
150,4534
150,4535
150,4536
150,4537
150,4538
150,4539
150,4540
150,4541
150,4542
150,4543
150,4544
150,4545
150,4546
150,4547
150,4548
150,4549
150,4550
150,4551
150,4552
150,4553
150,4554
150,4555
150,4556
150,4557
150,4558
150,4559
150,4560
150,4561
150,4562
150,4563
150,4564
150,4565
150,4566
150,4567
150,4568
150,4569
150,4570
150,4571
150,4572
150,4573
150,4574
150,4575
150,4576
150,4577
150,4578
150,4579
150,4580
150,4581
150,4582
150,4583
150,4584
150,4585
150,4586
150,4587
150,4588
150,4589
150,4590
150,4591
150,4592
150,4593
150,4594
150,4595
150,4596
150,4597
150,4598
150,4599
150,4600
150,4601
150,4602
150,4603
150,4604
150,4605
150,4606
150,4607
150,4608
150,4609
150,4610
150,4611
150,4612
150,4613
150,4614
150,4615
150,4616
150,4617
150,4618
150,4619
150,4620
150,4621
150,4622
150,4623
150,4624
150,4625
150,4626
150,4627
150,4628
150,4629
150,4630
150,4631
150,4632
150,4633
150,4634
150,4635
150,4636
150,4637
150,4638
150,4639
150,4640
150,4641
150,4642
150,4643
150,4644
150,4645
150,4646
150,4647
150,4648
150,4649
150,4650
150,4651
150,4652
150,4653
150,4654
150,4655
150,4656
150,4657
150,4658
150,4659
150,4660
150,4661
150,4662
150,4663
150,4664
150,4665
150,4666
150,4667
150,4668
150,4669
150,4670
150,4671
150,4672
150,4673
150,4674
150,4675
150,4676
150,4677
150,4678
150,4679
150,4680
150,4681
150,4682
150,4683
150,4684
150,4685
150,4686
150,4687
150,4688
150,4689
150,4690
150,4691
150,4692
150,4693
150,4694
150,4695
150,4696
150,4697
150,4698
150,4699
150,4700
150,4701
150,4702
150,4703
150,4704
150,4705
150,4706
150,4707
150,4708
150,4709
150,4710
150,4711
150,4712
150,4713
150,4714
150,4715
150,4716
150,4717
150,4718
150,4719
150,4720
150,4721
150,4722
150,4723
150,4724
150,4725
150,4726
150,4727
150,4728
150,4729
150,4730
150,4731
150,4732
150,4733
150,4734
150,4735
150,4736
150,4737
150,4738
150,4739
150,4740
150,4741
150,4742
150,4743
150,4744
150,4745
150,4746
150,4747
150,4748
150,4749
150,4750
150,4751
150,4752
150,4753
150,4754
150,4755
150,4756
150,4757
150,4758
150,4759
150,4760
150,4761
150,4762
150,4763
150,4764
150,4765
150,4766
150,4767
150,4768
150,4769
150,4770
150,4771
150,4772
150,4773
150,4774
150,4775
150,4776
150,4777
150,4778
150,4779
150,4780
150,4781
150,4782
150,4783
150,4784
150,4785
150,4786
150,4787
150,4788
150,4789
150,4790
150,4791
150,4792
150,4793
150,4794
150,4795
150,4796
150,4797
150,4798
150,4799
150,4800
150,4801
150,4802
150,4803
150,4804
150,4805
150,4806
150,4807
150,4808
150,4809
150,4810
150,4811
150,4812
150,4813
150,4814
150,4815
150,4816
150,4817
150,4818
150,4819
150,4820
150,4821
150,4822
150,4823
150,4824
150,4825
150,4826
150,4827
150,4828
150,4829
150,4830
150,4831
150,4832
150,4833
150,4834
150,4835
150,4836
150,4837
150,4838
150,4839
150,4840
150,4841
150,4842
150,4843
150,4844
150,4845
150,4846
150,4847
150,4848
150,4849
150,4850
150,4851
150,4852
150,4853
150,4854
150,4855
150,4856
150,4857
150,4858
150,4859
150,4860
150,4861
150,4862
150,4863
150,4864
150,4865
150,4866
150,4867
150,4868
150,4869
150,4870
150,4871
150,4872
150,4873
150,4874
150,4875
150,4876
150,4877
150,4878
150,4879
150,4880
150,4881
150,4882
150,4883
150,4884
150,4885
150,4886
150,4887
150,4888
150,4889
150,4890
150,4891
150,4892
150,4893
150,4894
150,4895
150,4896
150,4897
150,4898
150,4899
150,4900
150,4901
150,4902
150,4903
150,4904
150,4905
150,4906
150,4907
150,4908
150,4909
150,4910
150,4911
150,4912
150,4913
150,4914
150,4915
150,4916
150,4917
150,4918
150,4919
150,4920
150,4921
150,4922
150,4923
150,4924
150,4925
150,4926
150,4927
150,4928
150,4929
150,4930
150,4931
150,4932
150,4933
150,4934
150,4935
150,4936
150,4937
150,4938
150,4939
150,4940
150,4941
150,4942
150,4943
150,4944
150,4945
150,4946
150,4947
150,4948
150,4949
150,4950
150,4951
150,4952
150,4953
150,4954
150,4955
150,4956
150,4957
150,4958
150,4959
150,4960
150,4961
150,4962
150,4963
150,4964
150,4965
150,4966
150,4967
150,4968
150,4969
150,4970
150,4971
150,4972
150,4973
150,4974
150,4975
150,4976
150,4977
150,4978
150,4979
150,4980
150,4981
150,4982
150,4983
150,4984
150,4985
150,4986
150,4987
150,4988
150,4989
150,4990
150,4991
150,4992
150,4993
150,4994
150,4995
150,4996
150,4997
150,4998
150,4999
0,5000
0,5001
0,5002
0,5003
0,5004
0,5005
0,5006
0,5007
0,5008
0,5009
0,5010
0,5011
0,5012
0,5013
0,5014
0,5015
0,5016
0,5017
0,5018
0,5019
0,5020
0,5021
0,5022
0,5023
0,5024
0,5025
0,5026
0,5027
0,5028
0,5029
0,5030
0,5031
0,5032
0,5033
0,5034
0,5035
0,5036
0,5037
0,5038
0,5039
0,5040
0,5041
0,5042
0,5043
0,5044
0,5045
0,5046
0,5047
0,5048
0,5049
0,5050
0,5051
0,5052
0,5053
0,5054
0,5055
0,5056
0,5057
0,5058
0,5059
0,5060
0,5061
0,5062
0,5063
0,5064
0,5065
0,5066
0,5067
0,5068
0,5069
0,5070
0,5071
0,5072
0,5073
0,5074
0,5075
0,5076
0,5077
0,5078
0,5079
0,5080
0,5081
0,5082
0,5083
0,5084
0,5085
0,5086
0,5087
0,5088
0,5089
0,5090
0,5091
0,5092
0,5093
0,5094
0,5095
0,5096
0,5097
0,5098
0,5099
0,5100
0,5101
0,5102
0,5103
0,5104
0,5105
0,5106
0,5107
0,5108
0,5109
0,5110
0,5111
0,5112
0,5113
0,5114
0,5115
0,5116
0,5117
0,5118
0,5119
0,5120
0,5121
0,5122
0,5123
0,5124
0,5125
0,5126
0,5127
0,5128
0,5129
0,5130
0,5131
0,5132
0,5133
0,5134
0,5135
0,5136
0,5137
0,5138
0,5139
0,5140
0,5141
0,5142
0,5143
0,5144
0,5145
0,5146
0,5147
0,5148
0,5149
0,5150
0,5151
0,5152
0,5153
0,5154
0,5155
0,5156
0,5157
0,5158
0,5159
0,5160
0,5161
0,5162
0,5163
0,5164
0,5165
0,5166
0,5167
0,5168
0,5169
0,5170
0,5171
0,5172
0,5173
0,5174
0,5175
0,5176
0,5177
0,5178
0,5179
0,5180
0,5181
0,5182
0,5183
0,5184
0,5185
0,5186
0,5187
0,5188
0,5189
0,5190
0,5191
0,5192
0,5193
0,5194
0,5195
0,5196
0,5197
0,5198
0,5199
0,5200
0,5201
0,5202
0,5203
0,5204
0,5205
0,5206
0,5207
0,5208
0,5209
0,5210
0,5211
0,5212
0,5213
0,5214
0,5215
0,5216
0,5217
0,5218
0,5219
0,5220
0,5221
0,5222
0,5223
0,5224
0,5225
0,5226
0,5227
0,5228
0,5229
0,5230
0,5231
0,5232
0,5233
0,5234
0,5235
0,5236
0,5237
0,5238
0,5239
0,5240
0,5241
0,5242
0,5243
0,5244
0,5245
0,5246
0,5247
0,5248
0,5249
0,5250
0,5251
0,5252
0,5253
0,5254
0,5255
0,5256
0,5257
0,5258
0,5259
0,5260
0,5261
0,5262
0,5263
0,5264
0,5265
0,5266
0,5267
0,5268
0,5269
0,5270
0,5271
0,5272
0,5273
0,5274
0,5275
0,5276
0,5277
0,5278
0,5279
0,5280
0,5281
0,5282
0,5283
0,5284
0,5285
0,5286
0,5287
0,5288
0,5289
0,5290
0,5291
0,5292
0,5293
0,5294
0,5295
0,5296
0,5297
0,5298
0,5299
0,5300
0,5301
0,5302
0,5303
0,5304
0,5305
0,5306
0,5307
0,5308
0,5309
0,5310
0,5311
0,5312
0,5313
0,5314
0,5315
0,5316
0,5317
0,5318
0,5319
0,5320
0,5321
0,5322
0,5323
0,5324
0,5325
0,5326
0,5327
0,5328
0,5329
0,5330
0,5331
0,5332
0,5333
0,5334
0,5335
0,5336
0,5337
0,5338
0,5339
0,5340
0,5341
0,5342
0,5343
0,5344
0,5345
0,5346
0,5347
0,5348
0,5349
0,5350
0,5351
0,5352
0,5353
0,5354
0,5355
0,5356
0,5357
0,5358
0,5359
0,5360
0,5361
0,5362
0,5363
0,5364
0,5365
0,5366
0,5367
0,5368
0,5369
0,5370
0,5371
0,5372
0,5373
0,5374
0,5375
0,5376
0,5377
0,5378
0,5379
0,5380
0,5381
0,5382
0,5383
0,5384
0,5385
0,5386
0,5387
0,5388
0,5389
0,5390
0,5391
0,5392
0,5393
0,5394
0,5395
0,5396
0,5397
0,5398
0,5399
0,5400
0,5401
0,5402
0,5403
0,5404
0,5405
0,5406
0,5407
0,5408
0,5409
0,5410
0,5411
0,5412
0,5413
0,5414
0,5415
0,5416
0,5417
0,5418
0,5419
0,5420
0,5421
0,5422
0,5423
0,5424
0,5425
0,5426
0,5427
0,5428
0,5429
0,5430
0,5431
0,5432
0,5433
0,5434
0,5435
0,5436
0,5437
0,5438
0,5439
0,5440
0,5441
0,5442
0,5443
0,5444
0,5445
0,5446
0,5447
0,5448
0,5449
0,5450
0,5451
0,5452
0,5453
0,5454
0,5455
0,5456
0,5457
0,5458
0,5459
0,5460
0,5461
0,5462
0,5463
0,5464
0,5465
0,5466
0,5467
0,5468
0,5469
0,5470
0,5471
0,5472
0,5473
0,5474
0,5475
0,5476
0,5477
0,5478
0,5479
0,5480
0,5481
0,5482
0,5483
0,5484
0,5485
0,5486
0,5487
0,5488
0,5489
0,5490
0,5491
0,5492
0,5493
0,5494
0,5495
0,5496
0,5497
0,5498
0,5499
150,5500
150,5501
150,5502
150,5503
150,5504
150,5505
150,5506
150,5507
150,5508
150,5509
150,5510
150,5511
150,5512
150,5513
150,5514
150,5515
150,5516
150,5517
150,5518
150,5519
150,5520
150,5521
150,5522
150,5523
150,5524
150,5525
150,5526
150,5527
150,5528
150,5529
150,5530
150,5531
150,5532
150,5533
150,5534
150,5535
150,5536
150,5537
150,5538
150,5539
150,5540
150,5541
150,5542
150,5543
150,5544
150,5545
150,5546
150,5547
150,5548
150,5549
150,5550
150,5551
150,5552
150,5553
150,5554
150,5555
150,5556
150,5557
150,5558
150,5559
150,5560
150,5561
150,5562
150,5563
150,5564
150,5565
150,5566
150,5567
150,5568
150,5569
150,5570
150,5571
150,5572
150,5573
150,5574
150,5575
150,5576
150,5577
150,5578
150,5579
150,5580
150,5581
150,5582
150,5583
150,5584
150,5585
150,5586
150,5587
150,5588
150,5589
150,5590
150,5591
150,5592
150,5593
150,5594
150,5595
150,5596
150,5597
150,5598
150,5599
150,5600
150,5601
150,5602
150,5603
150,5604
150,5605
150,5606
150,5607
150,5608
150,5609
150,5610
150,5611
150,5612
150,5613
150,5614
150,5615
150,5616
150,5617
150,5618
150,5619
150,5620
150,5621
150,5622
150,5623
150,5624
150,5625
150,5626
150,5627
150,5628
150,5629
150,5630
150,5631
150,5632
150,5633
150,5634
150,5635
150,5636
150,5637
150,5638
150,5639
150,5640
150,5641
150,5642
150,5643
150,5644
150,5645
150,5646
150,5647
150,5648
150,5649
150,5650
150,5651
150,5652
150,5653
150,5654
150,5655
150,5656
150,5657
150,5658
150,5659
150,5660
150,5661
150,5662
150,5663
150,5664
150,5665
150,5666
150,5667
150,5668
150,5669
150,5670
150,5671
150,5672
150,5673
150,5674
150,5675
150,5676
150,5677
150,5678
150,5679
150,5680
150,5681
150,5682
150,5683
150,5684
150,5685
150,5686
150,5687
150,5688
150,5689
150,5690
150,5691
150,5692
150,5693
150,5694
150,5695
150,5696
150,5697
150,5698
150,5699
150,5700
150,5701
150,5702
150,5703
150,5704
150,5705
150,5706
150,5707
150,5708
150,5709
150,5710
150,5711
150,5712
150,5713
150,5714
150,5715
150,5716
150,5717
150,5718
150,5719
150,5720
150,5721
150,5722
150,5723
150,5724
150,5725
150,5726
150,5727
150,5728
150,5729
150,5730
150,5731
150,5732
150,5733
150,5734
150,5735
150,5736
150,5737
150,5738
150,5739
150,5740
150,5741
150,5742
150,5743
150,5744
150,5745
150,5746
150,5747
150,5748
150,5749
150,5750
150,5751
150,5752
150,5753
150,5754
150,5755
150,5756
150,5757
150,5758
150,5759
150,5760
150,5761
150,5762
150,5763
150,5764
150,5765
150,5766
150,5767
150,5768
150,5769
150,5770
150,5771
150,5772
150,5773
150,5774
150,5775
150,5776
150,5777
150,5778
150,5779
150,5780
150,5781
150,5782
150,5783
150,5784
150,5785
150,5786
150,5787
150,5788
150,5789
150,5790
150,5791
150,5792
150,5793
150,5794
150,5795
150,5796
150,5797
150,5798
150,5799
150,5800
150,5801
150,5802
150,5803
150,5804
150,5805
150,5806
150,5807
150,5808
150,5809
150,5810
150,5811
150,5812
150,5813
150,5814
150,5815
150,5816
150,5817
150,5818
150,5819
150,5820
150,5821
150,5822
150,5823
150,5824
150,5825
150,5826
150,5827
150,5828
150,5829
150,5830
150,5831
150,5832
150,5833
150,5834
150,5835
150,5836
150,5837
150,5838
150,5839
150,5840
150,5841
150,5842
150,5843
150,5844
150,5845
150,5846
150,5847
150,5848
150,5849
150,5850
150,5851
150,5852
150,5853
150,5854
150,5855
150,5856
150,5857
150,5858
150,5859
150,5860
150,5861
150,5862
150,5863
150,5864
150,5865
150,5866
150,5867
150,5868
150,5869
150,5870
150,5871
150,5872
150,5873
150,5874
150,5875
150,5876
150,5877
150,5878
150,5879
150,5880
150,5881
150,5882
150,5883
150,5884
150,5885
150,5886
150,5887
150,5888
150,5889
150,5890
150,5891
150,5892
150,5893
150,5894
150,5895
150,5896
150,5897
150,5898
150,5899
150,5900
150,5901
150,5902
150,5903
150,5904
150,5905
150,5906
150,5907
150,5908
150,5909
150,5910
150,5911
150,5912
150,5913
150,5914
150,5915
150,5916
150,5917
150,5918
150,5919
150,5920
150,5921
150,5922
150,5923
150,5924
150,5925
150,5926
150,5927
150,5928
150,5929
150,5930
150,5931
150,5932
150,5933
150,5934
150,5935
150,5936
150,5937
150,5938
150,5939
150,5940
150,5941
150,5942
150,5943
150,5944
150,5945
150,5946
150,5947
150,5948
150,5949
150,5950
150,5951
150,5952
150,5953
150,5954
150,5955
150,5956
150,5957
150,5958
150,5959
150,5960
150,5961
150,5962
150,5963
150,5964
150,5965
150,5966
150,5967
150,5968
150,5969
150,5970
150,5971
150,5972
150,5973
150,5974
150,5975
150,5976
150,5977
150,5978
150,5979
150,5980
150,5981
150,5982
150,5983
150,5984
150,5985
150,5986
150,5987
150,5988
150,5989
150,5990
150,5991
150,5992
150,5993
150,5994
150,5995
150,5996
150,5997
150,5998
150,5999
0,6000
0,6001
0,6002
0,6003
0,6004
0,6005
0,6006
0,6007
0,6008
0,6009
0,6010
0,6011
0,6012
0,6013
0,6014
0,6015
0,6016
0,6017
0,6018
0,6019
0,6020
0,6021
0,6022
0,6023
0,6024
0,6025
0,6026
0,6027
0,6028
0,6029
0,6030
0,6031
0,6032
0,6033
0,6034
0,6035
0,6036
0,6037
0,6038
0,6039
0,6040
0,6041
0,6042
0,6043
0,6044
0,6045
0,6046
0,6047
0,6048
0,6049
0,6050
0,6051
0,6052
0,6053
0,6054
0,6055
0,6056
0,6057
0,6058
0,6059
0,6060
0,6061
0,6062
0,6063
0,6064
0,6065
0,6066
0,6067
0,6068
0,6069
0,6070
0,6071
0,6072
0,6073
0,6074
0,6075
0,6076
0,6077
0,6078
0,6079
0,6080
0,6081
0,6082
0,6083
0,6084
0,6085
0,6086
0,6087
0,6088
0,6089
0,6090
0,6091
0,6092
0,6093
0,6094
0,6095
0,6096
0,6097
0,6098
0,6099
0,6100
0,6101
0,6102
0,6103
0,6104
0,6105
0,6106
0,6107
0,6108
0,6109
0,6110
0,6111
0,6112
0,6113
0,6114
0,6115
0,6116
0,6117
0,6118
0,6119
0,6120
0,6121
0,6122
0,6123
0,6124
0,6125
0,6126
0,6127
0,6128
0,6129
0,6130
0,6131
0,6132
0,6133
0,6134
0,6135
0,6136
0,6137
0,6138
0,6139
0,6140
0,6141
0,6142
0,6143
0,6144
0,6145
0,6146
0,6147
0,6148
0,6149
0,6150
0,6151
0,6152
0,6153
0,6154
0,6155
0,6156
0,6157
0,6158
0,6159
0,6160
0,6161
0,6162
0,6163
0,6164
0,6165
0,6166
0,6167
0,6168
0,6169
0,6170
0,6171
0,6172
0,6173
0,6174
0,6175
0,6176
0,6177
0,6178
0,6179
0,6180
0,6181
0,6182
0,6183
0,6184
0,6185
0,6186
0,6187
0,6188
0,6189
0,6190
0,6191
0,6192
0,6193
0,6194
0,6195
0,6196
0,6197
0,6198
0,6199
0,6200
0,6201
0,6202
0,6203
0,6204
0,6205
0,6206
0,6207
0,6208
0,6209
0,6210
0,6211
0,6212
0,6213
0,6214
0,6215
0,6216
0,6217
0,6218
0,6219
0,6220
0,6221
0,6222
0,6223
0,6224
0,6225
0,6226
0,6227
0,6228
0,6229
0,6230
0,6231
0,6232
0,6233
0,6234
0,6235
0,6236
0,6237
0,6238
0,6239
0,6240
0,6241
0,6242
0,6243
0,6244
0,6245
0,6246
0,6247
0,6248
0,6249
0,6250
0,6251
0,6252
0,6253
0,6254
0,6255
0,6256
0,6257
0,6258
0,6259
0,6260
0,6261
0,6262
0,6263
0,6264
0,6265
0,6266
0,6267
0,6268
0,6269
0,6270
0,6271
0,6272
0,6273
0,6274
0,6275
0,6276
0,6277
0,6278
0,6279
0,6280
0,6281
0,6282
0,6283
0,6284
0,6285
0,6286
0,6287
0,6288
0,6289
0,6290
0,6291
0,6292
0,6293
0,6294
0,6295
0,6296
0,6297
0,6298
0,6299
0,6300
0,6301
0,6302
0,6303
0,6304
0,6305
0,6306
0,6307
0,6308
0,6309
0,6310
0,6311
0,6312
0,6313
0,6314
0,6315
0,6316
0,6317
0,6318
0,6319
0,6320
0,6321
0,6322
0,6323
0,6324
0,6325
0,6326
0,6327
0,6328
0,6329
0,6330
0,6331
0,6332
0,6333
0,6334
0,6335
0,6336
0,6337
0,6338
0,6339
0,6340
0,6341
0,6342
0,6343
0,6344
0,6345
0,6346
0,6347
0,6348
0,6349
0,6350
0,6351
0,6352
0,6353
0,6354
0,6355
0,6356
0,6357
0,6358
0,6359
0,6360
0,6361
0,6362
0,6363
0,6364
0,6365
0,6366
0,6367
0,6368
0,6369
0,6370
0,6371
0,6372
0,6373
0,6374
0,6375
0,6376
0,6377
0,6378
0,6379
0,6380
0,6381
0,6382
0,6383
0,6384
0,6385
0,6386
0,6387
0,6388
0,6389
0,6390
0,6391
0,6392
0,6393
0,6394
0,6395
0,6396
0,6397
0,6398
0,6399
0,6400
0,6401
0,6402
0,6403
0,6404
0,6405
0,6406
0,6407
0,6408
0,6409
0,6410
0,6411
0,6412
0,6413
0,6414
0,6415
0,6416
0,6417
0,6418
0,6419
0,6420
0,6421
0,6422
0,6423
0,6424
0,6425
0,6426
0,6427
0,6428
0,6429
0,6430
0,6431
0,6432
0,6433
0,6434
0,6435
0,6436
0,6437
0,6438
0,6439
0,6440
0,6441
0,6442
0,6443
0,6444
0,6445
0,6446
0,6447
0,6448
0,6449
0,6450
0,6451
0,6452
0,6453
0,6454
0,6455
0,6456
0,6457
0,6458
0,6459
0,6460
0,6461
0,6462
0,6463
0,6464
0,6465
0,6466
0,6467
0,6468
0,6469
0,6470
0,6471
0,6472
0,6473
0,6474
0,6475
0,6476
0,6477
0,6478
0,6479
0,6480
0,6481
0,6482
0,6483
0,6484
0,6485
0,6486
0,6487
0,6488
0,6489
0,6490
0,6491
0,6492
0,6493
0,6494
0,6495
0,6496
0,6497
0,6498
0,6499
150,6500
150,6501
150,6502
150,6503
150,6504
150,6505
150,6506
150,6507
150,6508
150,6509
150,6510
150,6511
150,6512
150,6513
150,6514
150,6515
150,6516
150,6517
150,6518
150,6519
150,6520
150,6521
150,6522
150,6523
150,6524
150,6525
150,6526
150,6527
150,6528
150,6529
150,6530
150,6531
150,6532
150,6533
150,6534
150,6535
150,6536
150,6537
150,6538
150,6539
150,6540
150,6541
150,6542
150,6543
150,6544
150,6545
150,6546
150,6547
150,6548
150,6549
150,6550
150,6551
150,6552
150,6553
150,6554
150,6555
150,6556
150,6557
150,6558
150,6559
150,6560
150,6561
150,6562
150,6563
150,6564
150,6565
150,6566
150,6567
150,6568
150,6569
150,6570
150,6571
150,6572
150,6573
150,6574
150,6575
150,6576
150,6577
150,6578
150,6579
150,6580
150,6581
150,6582
150,6583
150,6584
150,6585
150,6586
150,6587
150,6588
150,6589
150,6590
150,6591
150,6592
150,6593
150,6594
150,6595
150,6596
150,6597
150,6598
150,6599
150,6600
150,6601
150,6602
150,6603
150,6604
150,6605
150,6606
150,6607
150,6608
150,6609
150,6610
150,6611
150,6612
150,6613
150,6614
150,6615
150,6616
150,6617
150,6618
150,6619
150,6620
150,6621
150,6622
150,6623
150,6624
150,6625
150,6626
150,6627
150,6628
150,6629
150,6630
150,6631
150,6632
150,6633
150,6634
150,6635
150,6636
150,6637
150,6638
150,6639
150,6640
150,6641
150,6642
150,6643
150,6644
150,6645
150,6646
150,6647
150,6648
150,6649
150,6650
150,6651
150,6652
150,6653
150,6654
150,6655
150,6656
150,6657
150,6658
150,6659
150,6660
150,6661
150,6662
150,6663
150,6664
150,6665
150,6666
150,6667
150,6668
150,6669
150,6670
150,6671
150,6672
150,6673
150,6674
150,6675
150,6676
150,6677
150,6678
150,6679
150,6680
150,6681
150,6682
150,6683
150,6684
150,6685
150,6686
150,6687
150,6688
150,6689
150,6690
150,6691
150,6692
150,6693
150,6694
150,6695
150,6696
150,6697
150,6698
150,6699
150,6700
150,6701
150,6702
150,6703
150,6704
150,6705
150,6706
150,6707
150,6708
150,6709
150,6710
150,6711
150,6712
150,6713
150,6714
150,6715
150,6716
150,6717
150,6718
150,6719
150,6720
150,6721
150,6722
150,6723
150,6724
150,6725
150,6726
150,6727
150,6728
150,6729
150,6730
150,6731
150,6732
150,6733
150,6734
150,6735
150,6736
150,6737
150,6738
150,6739
150,6740
150,6741
150,6742
150,6743
150,6744
150,6745
150,6746
150,6747
150,6748
150,6749
150,6750
150,6751
150,6752
150,6753
150,6754
150,6755
150,6756
150,6757
150,6758
150,6759
150,6760
150,6761
150,6762
150,6763
150,6764
150,6765
150,6766
150,6767
150,6768
150,6769
150,6770
150,6771
150,6772
150,6773
150,6774
150,6775
150,6776
150,6777
150,6778
150,6779
150,6780
150,6781
150,6782
150,6783
150,6784
150,6785
150,6786
150,6787
150,6788
150,6789
150,6790
150,6791
150,6792
150,6793
150,6794
150,6795
150,6796
150,6797
150,6798
150,6799
150,6800
150,6801
150,6802
150,6803
150,6804
150,6805
150,6806
150,6807
150,6808
150,6809
150,6810
150,6811
150,6812
150,6813
150,6814
150,6815
150,6816
150,6817
150,6818
150,6819
150,6820
150,6821
150,6822
150,6823
150,6824
150,6825
150,6826
150,6827
150,6828
150,6829
150,6830
150,6831
150,6832
150,6833
150,6834
150,6835
150,6836
150,6837
150,6838
150,6839
150,6840
150,6841
150,6842
150,6843
150,6844
150,6845
150,6846
150,6847
150,6848
150,6849
150,6850
150,6851
150,6852
150,6853
150,6854
150,6855
150,6856
150,6857
150,6858
150,6859
150,6860
150,6861
150,6862
150,6863
150,6864
150,6865
150,6866
150,6867
150,6868
150,6869
150,6870
150,6871
150,6872
150,6873
150,6874
150,6875
150,6876
150,6877
150,6878
150,6879
150,6880
150,6881
150,6882
150,6883
150,6884
150,6885
150,6886
150,6887
150,6888
150,6889
150,6890
150,6891
150,6892
150,6893
150,6894
150,6895
150,6896
150,6897
150,6898
150,6899
150,6900
150,6901
150,6902
150,6903
150,6904
150,6905
150,6906
150,6907
150,6908
150,6909
150,6910
150,6911
150,6912
150,6913
150,6914
150,6915
150,6916
150,6917
150,6918
150,6919
150,6920
150,6921
150,6922
150,6923
150,6924
150,6925
150,6926
150,6927
150,6928
150,6929
150,6930
150,6931
150,6932
150,6933
150,6934
150,6935
150,6936
150,6937
150,6938
150,6939
150,6940
150,6941
150,6942
150,6943
150,6944
150,6945
150,6946
150,6947
150,6948
150,6949
150,6950
150,6951
150,6952
150,6953
150,6954
150,6955
150,6956
150,6957
150,6958
150,6959
150,6960
150,6961
150,6962
150,6963
150,6964
150,6965
150,6966
150,6967
150,6968
150,6969
150,6970
150,6971
150,6972
150,6973
150,6974
150,6975
150,6976
150,6977
150,6978
150,6979
150,6980
150,6981
150,6982
150,6983
150,6984
150,6985
150,6986
150,6987
150,6988
150,6989
150,6990
150,6991
150,6992
150,6993
150,6994
150,6995
150,6996
150,6997
150,6998
150,6999
0,7000
0,7001
0,7002
0,7003
0,7004
0,7005
0,7006
0,7007
0,7008
0,7009
0,7010
0,7011
0,7012
0,7013
0,7014
0,7015
0,7016
0,7017
0,7018
0,7019
0,7020
0,7021
0,7022
0,7023
0,7024
0,7025
0,7026
0,7027
0,7028
0,7029
0,7030
0,7031
0,7032
0,7033
0,7034
0,7035
0,7036
0,7037
0,7038
0,7039
0,7040
0,7041
0,7042
0,7043
0,7044
0,7045
0,7046
0,7047
0,7048
0,7049
0,7050
0,7051
0,7052
0,7053
0,7054
0,7055
0,7056
0,7057
0,7058
0,7059
0,7060
0,7061
0,7062
0,7063
0,7064
0,7065
0,7066
0,7067
0,7068
0,7069
0,7070
0,7071
0,7072
0,7073
0,7074
0,7075
0,7076
0,7077
0,7078
0,7079
0,7080
0,7081
0,7082
0,7083
0,7084
0,7085
0,7086
0,7087
0,7088
0,7089
0,7090
0,7091
0,7092
0,7093
0,7094
0,7095
0,7096
0,7097
0,7098
0,7099
0,7100
0,7101
0,7102
0,7103
0,7104
0,7105
0,7106
0,7107
0,7108
0,7109
0,7110
0,7111
0,7112
0,7113
0,7114
0,7115
0,7116
0,7117
0,7118
0,7119
0,7120
0,7121
0,7122
0,7123
0,7124
0,7125
0,7126
0,7127
0,7128
0,7129
0,7130
0,7131
0,7132
0,7133
0,7134
0,7135
0,7136
0,7137
0,7138
0,7139
0,7140
0,7141
0,7142
0,7143
0,7144
0,7145
0,7146
0,7147
0,7148
0,7149
0,7150
0,7151
0,7152
0,7153
0,7154
0,7155
0,7156
0,7157
0,7158
0,7159
0,7160
0,7161
0,7162
0,7163
0,7164
0,7165
0,7166
0,7167
0,7168
0,7169
0,7170
0,7171
0,7172
0,7173
0,7174
0,7175
0,7176
0,7177
0,7178
0,7179
0,7180
0,7181
0,7182
0,7183
0,7184
0,7185
0,7186
0,7187
0,7188
0,7189
0,7190
0,7191
0,7192
0,7193
0,7194
0,7195
0,7196
0,7197
0,7198
0,7199
0,7200
0,7201
0,7202
0,7203
0,7204
0,7205
0,7206
0,7207
0,7208
0,7209
0,7210
0,7211
0,7212
0,7213
0,7214
0,7215
0,7216
0,7217
0,7218
0,7219
0,7220
0,7221
0,7222
0,7223
0,7224
0,7225
0,7226
0,7227
0,7228
0,7229
0,7230
0,7231
0,7232
0,7233
0,7234
0,7235
0,7236
0,7237
0,7238
0,7239
0,7240
0,7241
0,7242
0,7243
0,7244
0,7245
0,7246
0,7247
0,7248
0,7249
0,7250
0,7251
0,7252
0,7253
0,7254
0,7255
0,7256
0,7257
0,7258
0,7259
0,7260
0,7261
0,7262
0,7263
0,7264
0,7265
0,7266
0,7267
0,7268
0,7269
0,7270
0,7271
0,7272
0,7273
0,7274
0,7275
0,7276
0,7277
0,7278
0,7279
0,7280
0,7281
0,7282
0,7283
0,7284
0,7285
0,7286
0,7287
0,7288
0,7289
0,7290
0,7291
0,7292
0,7293
0,7294
0,7295
0,7296
0,7297
0,7298
0,7299
0,7300
0,7301
0,7302
0,7303
0,7304
0,7305
0,7306
0,7307
0,7308
0,7309
0,7310
0,7311
0,7312
0,7313
0,7314
0,7315
0,7316
0,7317
0,7318
0,7319
0,7320
0,7321
0,7322
0,7323
0,7324
0,7325
0,7326
0,7327
0,7328
0,7329
0,7330
0,7331
0,7332
0,7333
0,7334
0,7335
0,7336
0,7337
0,7338
0,7339
0,7340
0,7341
0,7342
0,7343
0,7344
0,7345
0,7346
0,7347
0,7348
0,7349
0,7350
0,7351
0,7352
0,7353
0,7354
0,7355
0,7356
0,7357
0,7358
0,7359
0,7360
0,7361
0,7362
0,7363
0,7364
0,7365
0,7366
0,7367
0,7368
0,7369
0,7370
0,7371
0,7372
0,7373
0,7374
0,7375
0,7376
0,7377
0,7378
0,7379
0,7380
0,7381
0,7382
0,7383
0,7384
0,7385
0,7386
0,7387
0,7388
0,7389
0,7390
0,7391
0,7392
0,7393
0,7394
0,7395
0,7396
0,7397
0,7398
0,7399
0,7400
0,7401
0,7402
0,7403
0,7404
0,7405
0,7406
0,7407
0,7408
0,7409
0,7410
0,7411
0,7412
0,7413
0,7414
0,7415
0,7416
0,7417
0,7418
0,7419
0,7420
0,7421
0,7422
0,7423
0,7424
0,7425
0,7426
0,7427
0,7428
0,7429
0,7430
0,7431
0,7432
0,7433
0,7434
0,7435
0,7436
0,7437
0,7438
0,7439
0,7440
0,7441
0,7442
0,7443
0,7444
0,7445
0,7446
0,7447
0,7448
0,7449
0,7450
0,7451
0,7452
0,7453
0,7454
0,7455
0,7456
0,7457
0,7458
0,7459
0,7460
0,7461
0,7462
0,7463
0,7464
0,7465
0,7466
0,7467
0,7468
0,7469
0,7470
0,7471
0,7472
0,7473
0,7474
0,7475
0,7476
0,7477
0,7478
0,7479
0,7480
0,7481
0,7482
0,7483
0,7484
0,7485
0,7486
0,7487
0,7488
0,7489
0,7490
0,7491
0,7492
0,7493
0,7494
0,7495
0,7496
0,7497
0,7498
0,7499
150,7500
150,7501
150,7502
150,7503
150,7504
150,7505
150,7506
150,7507
150,7508
150,7509
150,7510
150,7511
150,7512
150,7513
150,7514
150,7515
150,7516
150,7517
150,7518
150,7519
150,7520
150,7521
150,7522
150,7523
150,7524
150,7525
150,7526
150,7527
150,7528
150,7529
150,7530
150,7531
150,7532
150,7533
150,7534
150,7535
150,7536
150,7537
150,7538
150,7539
150,7540
150,7541
150,7542
150,7543
150,7544
150,7545
150,7546
150,7547
150,7548
150,7549
150,7550
150,7551
150,7552
150,7553
150,7554
150,7555
150,7556
150,7557
150,7558
150,7559
150,7560
150,7561
150,7562
150,7563
150,7564
150,7565
150,7566
150,7567
150,7568
150,7569
150,7570
150,7571
150,7572
150,7573
150,7574
150,7575
150,7576
150,7577
150,7578
150,7579
150,7580
150,7581
150,7582
150,7583
150,7584
150,7585
150,7586
150,7587
150,7588
150,7589
150,7590
150,7591
150,7592
150,7593
150,7594
150,7595
150,7596
150,7597
150,7598
150,7599
150,7600
150,7601
150,7602
150,7603
150,7604
150,7605
150,7606
150,7607
150,7608
150,7609
150,7610
150,7611
150,7612
150,7613
150,7614
150,7615
150,7616
150,7617
150,7618
150,7619
150,7620
150,7621
150,7622
150,7623
150,7624
150,7625
150,7626
150,7627
150,7628
150,7629
150,7630
150,7631
150,7632
150,7633
150,7634
150,7635
150,7636
150,7637
150,7638
150,7639
150,7640
150,7641
150,7642
150,7643
150,7644
150,7645
150,7646
150,7647
150,7648
150,7649
150,7650
150,7651
150,7652
150,7653
150,7654
150,7655
150,7656
150,7657
150,7658
150,7659
150,7660
150,7661
150,7662
150,7663
150,7664
150,7665
150,7666
150,7667
150,7668
150,7669
150,7670
150,7671
150,7672
150,7673
150,7674
150,7675
150,7676
150,7677
150,7678
150,7679
150,7680
150,7681
150,7682
150,7683
150,7684
150,7685
150,7686
150,7687
150,7688
150,7689
150,7690
150,7691
150,7692
150,7693
150,7694
150,7695
150,7696
150,7697
150,7698
150,7699
150,7700
150,7701
150,7702
150,7703
150,7704
150,7705
150,7706
150,7707
150,7708
150,7709
150,7710
150,7711
150,7712
150,7713
150,7714
150,7715
150,7716
150,7717
150,7718
150,7719
150,7720
150,7721
150,7722
150,7723
150,7724
150,7725
150,7726
150,7727
150,7728
150,7729
150,7730
150,7731
150,7732
150,7733
150,7734
150,7735
150,7736
150,7737
150,7738
150,7739
150,7740
150,7741
150,7742
150,7743
150,7744
150,7745
150,7746
150,7747
150,7748
150,7749
150,7750
150,7751
150,7752
150,7753
150,7754
150,7755
150,7756
150,7757
150,7758
150,7759
150,7760
150,7761
150,7762
150,7763
150,7764
150,7765
150,7766
150,7767
150,7768
150,7769
150,7770
150,7771
150,7772
150,7773
150,7774
150,7775
150,7776
150,7777
150,7778
150,7779
150,7780
150,7781
150,7782
150,7783
150,7784
150,7785
150,7786
150,7787
150,7788
150,7789
150,7790
150,7791
150,7792
150,7793
150,7794
150,7795
150,7796
150,7797
150,7798
150,7799
150,7800
150,7801
150,7802
150,7803
150,7804
150,7805
150,7806
150,7807
150,7808
150,7809
150,7810
150,7811
150,7812
150,7813
150,7814
150,7815
150,7816
150,7817
150,7818
150,7819
150,7820
150,7821
150,7822
150,7823
150,7824
150,7825
150,7826
150,7827
150,7828
150,7829
150,7830
150,7831
150,7832
150,7833
150,7834
150,7835
150,7836
150,7837
150,7838
150,7839
150,7840
150,7841
150,7842
150,7843
150,7844
150,7845
150,7846
150,7847
150,7848
150,7849
150,7850
150,7851
150,7852
150,7853
150,7854
150,7855
150,7856
150,7857
150,7858
150,7859
150,7860
150,7861
150,7862
150,7863
150,7864
150,7865
150,7866
150,7867
150,7868
150,7869
150,7870
150,7871
150,7872
150,7873
150,7874
150,7875
150,7876
150,7877
150,7878
150,7879
150,7880
150,7881
150,7882
150,7883
150,7884
150,7885
150,7886
150,7887
150,7888
150,7889
150,7890
150,7891
150,7892
150,7893
150,7894
150,7895
150,7896
150,7897
150,7898
150,7899
150,7900
150,7901
150,7902
150,7903
150,7904
150,7905
150,7906
150,7907
150,7908
150,7909
150,7910
150,7911
150,7912
150,7913
150,7914
150,7915
150,7916
150,7917
150,7918
150,7919
150,7920
150,7921
150,7922
150,7923
150,7924
150,7925
150,7926
150,7927
150,7928
150,7929
150,7930
150,7931
150,7932
150,7933
150,7934
150,7935
150,7936
150,7937
150,7938
150,7939
150,7940
150,7941
150,7942
150,7943
150,7944
150,7945
150,7946
150,7947
150,7948
150,7949
150,7950
150,7951
150,7952
150,7953
150,7954
150,7955
150,7956
150,7957
150,7958
150,7959
150,7960
150,7961
150,7962
150,7963
150,7964
150,7965
150,7966
150,7967
150,7968
150,7969
150,7970
150,7971
150,7972
150,7973
150,7974
150,7975
150,7976
150,7977
150,7978
150,7979
150,7980
150,7981
150,7982
150,7983
150,7984
150,7985
150,7986
150,7987
150,7988
150,7989
150,7990
150,7991
150,7992
150,7993
150,7994
150,7995
150,7996
150,7997
150,7998
150,7999
0,8000
0,8001
0,8002
0,8003
0,8004
0,8005
0,8006
0,8007
0,8008
0,8009
0,8010
0,8011
0,8012
0,8013
0,8014
0,8015
0,8016
0,8017
0,8018
0,8019
0,8020
0,8021
0,8022
0,8023
0,8024
0,8025
0,8026
0,8027
0,8028
0,8029
0,8030
0,8031
0,8032
0,8033
0,8034
0,8035
0,8036
0,8037
0,8038
0,8039
0,8040
0,8041
0,8042
0,8043
0,8044
0,8045
0,8046
0,8047
0,8048
0,8049
0,8050
0,8051
0,8052
0,8053
0,8054
0,8055
0,8056
0,8057
0,8058
0,8059
0,8060
0,8061
0,8062
0,8063
0,8064
0,8065
0,8066
0,8067
0,8068
0,8069
0,8070
0,8071
0,8072
0,8073
0,8074
0,8075
0,8076
0,8077
0,8078
0,8079
0,8080
0,8081
0,8082
0,8083
0,8084
0,8085
0,8086
0,8087
0,8088
0,8089
0,8090
0,8091
0,8092
0,8093
0,8094
0,8095
0,8096
0,8097
0,8098
0,8099
0,8100
0,8101
0,8102
0,8103
0,8104
0,8105
0,8106
0,8107
0,8108
0,8109
0,8110
0,8111
0,8112
0,8113
0,8114
0,8115
0,8116
0,8117
0,8118
0,8119
0,8120
0,8121
0,8122
0,8123
0,8124
0,8125
0,8126
0,8127
0,8128
0,8129
0,8130
0,8131
0,8132
0,8133
0,8134
0,8135
0,8136
0,8137
0,8138
0,8139
0,8140
0,8141
0,8142
0,8143
0,8144
0,8145
0,8146
0,8147
0,8148
0,8149
0,8150
0,8151
0,8152
0,8153
0,8154
0,8155
0,8156
0,8157
0,8158
0,8159
0,8160
0,8161
0,8162
0,8163
0,8164
0,8165
0,8166
0,8167
0,8168
0,8169
0,8170
0,8171
0,8172
0,8173
0,8174
0,8175
0,8176
0,8177
0,8178
0,8179
0,8180
0,8181
0,8182
0,8183
0,8184
0,8185
0,8186
0,8187
0,8188
0,8189
0,8190
0,8191
0,8192
0,8193
0,8194
0,8195
0,8196
0,8197
0,8198
0,8199
0,8200
0,8201
0,8202
0,8203
0,8204
0,8205
0,8206
0,8207
0,8208
0,8209
0,8210
0,8211
0,8212
0,8213
0,8214
0,8215
0,8216
0,8217
0,8218
0,8219
0,8220
0,8221
0,8222
0,8223
0,8224
0,8225
0,8226
0,8227
0,8228
0,8229
0,8230
0,8231
0,8232
0,8233
0,8234
0,8235
0,8236
0,8237
0,8238
0,8239
0,8240
0,8241
0,8242
0,8243
0,8244
0,8245
0,8246
0,8247
0,8248
0,8249
0,8250
0,8251
0,8252
0,8253
0,8254
0,8255
0,8256
0,8257
0,8258
0,8259
0,8260
0,8261
0,8262
0,8263
0,8264
0,8265
0,8266
0,8267
0,8268
0,8269
0,8270
0,8271
0,8272
0,8273
0,8274
0,8275
0,8276
0,8277
0,8278
0,8279
0,8280
0,8281
0,8282
0,8283
0,8284
0,8285
0,8286
0,8287
0,8288
0,8289
0,8290
0,8291
0,8292
0,8293
0,8294
0,8295
0,8296
0,8297
0,8298
0,8299
0,8300
0,8301
0,8302
0,8303
0,8304
0,8305
0,8306
0,8307
0,8308
0,8309
0,8310
0,8311
0,8312
0,8313
0,8314
0,8315
0,8316
0,8317
0,8318
0,8319
0,8320
0,8321
0,8322
0,8323
0,8324
0,8325
0,8326
0,8327
0,8328
0,8329
0,8330
0,8331
0,8332
0,8333
0,8334
0,8335
0,8336
0,8337
0,8338
0,8339
0,8340
0,8341
0,8342
0,8343
0,8344
0,8345
0,8346
0,8347
0,8348
0,8349
0,8350
0,8351
0,8352
0,8353
0,8354
0,8355
0,8356
0,8357
0,8358
0,8359
0,8360
0,8361
0,8362
0,8363
0,8364
0,8365
0,8366
0,8367
0,8368
0,8369
0,8370
0,8371
0,8372
0,8373
0,8374
0,8375
0,8376
0,8377
0,8378
0,8379
0,8380
0,8381
0,8382
0,8383
0,8384
0,8385
0,8386
0,8387
0,8388
0,8389
0,8390
0,8391
0,8392
0,8393
0,8394
0,8395
0,8396
0,8397
0,8398
0,8399
0,8400
0,8401
0,8402
0,8403
0,8404
0,8405
0,8406
0,8407
0,8408
0,8409
0,8410
0,8411
0,8412
0,8413
0,8414
0,8415
0,8416
0,8417
0,8418
0,8419
0,8420
0,8421
0,8422
0,8423
0,8424
0,8425
0,8426
0,8427
0,8428
0,8429
0,8430
0,8431
0,8432
0,8433
0,8434
0,8435
0,8436
0,8437
0,8438
0,8439
0,8440
0,8441
0,8442
0,8443
0,8444
0,8445
0,8446
0,8447
0,8448
0,8449
0,8450
0,8451
0,8452
0,8453
0,8454
0,8455
0,8456
0,8457
0,8458
0,8459
0,8460
0,8461
0,8462
0,8463
0,8464
0,8465
0,8466
0,8467
0,8468
0,8469
0,8470
0,8471
0,8472
0,8473
0,8474
0,8475
0,8476
0,8477
0,8478
0,8479
0,8480
0,8481
0,8482
0,8483
0,8484
0,8485
0,8486
0,8487
0,8488
0,8489
0,8490
0,8491
0,8492
0,8493
0,8494
0,8495
0,8496
0,8497
0,8498
0,8499
150,8500
150,8501
150,8502
150,8503
150,8504
150,8505
150,8506
150,8507
150,8508
150,8509
150,8510
150,8511
150,8512
150,8513
150,8514
150,8515
150,8516
150,8517
150,8518
150,8519
150,8520
150,8521
150,8522
150,8523
150,8524
150,8525
150,8526
150,8527
150,8528
150,8529
150,8530
150,8531
150,8532
150,8533
150,8534
150,8535
150,8536
150,8537
150,8538
150,8539
150,8540
150,8541
150,8542
150,8543
150,8544
150,8545
150,8546
150,8547
150,8548
150,8549
150,8550
150,8551
150,8552
150,8553
150,8554
150,8555
150,8556
150,8557
150,8558
150,8559
150,8560
150,8561
150,8562
150,8563
150,8564
150,8565
150,8566
150,8567
150,8568
150,8569
150,8570
150,8571
150,8572
150,8573
150,8574
150,8575
150,8576
150,8577
150,8578
150,8579
150,8580
150,8581
150,8582
150,8583
150,8584
150,8585
150,8586
150,8587
150,8588
150,8589
150,8590
150,8591
150,8592
150,8593
150,8594
150,8595
150,8596
150,8597
150,8598
150,8599
150,8600
150,8601
150,8602
150,8603
150,8604
150,8605
150,8606
150,8607
150,8608
150,8609
150,8610
150,8611
150,8612
150,8613
150,8614
150,8615
150,8616
150,8617
150,8618
150,8619
150,8620
150,8621
150,8622
150,8623
150,8624
150,8625
150,8626
150,8627
150,8628
150,8629
150,8630
150,8631
150,8632
150,8633
150,8634
150,8635
150,8636
150,8637
150,8638
150,8639
150,8640
150,8641
150,8642
150,8643
150,8644
150,8645
150,8646
150,8647
150,8648
150,8649
150,8650
150,8651
150,8652
150,8653
150,8654
150,8655
150,8656
150,8657
150,8658
150,8659
150,8660
150,8661
150,8662
150,8663
150,8664
150,8665
150,8666
150,8667
150,8668
150,8669
150,8670
150,8671
150,8672
150,8673
150,8674
150,8675
150,8676
150,8677
150,8678
150,8679
150,8680
150,8681
150,8682
150,8683
150,8684
150,8685
150,8686
150,8687
150,8688
150,8689
150,8690
150,8691
150,8692
150,8693
150,8694
150,8695
150,8696
150,8697
150,8698
150,8699
150,8700
150,8701
150,8702
150,8703
150,8704
150,8705
150,8706
150,8707
150,8708
150,8709
150,8710
150,8711
150,8712
150,8713
150,8714
150,8715
150,8716
150,8717
150,8718
150,8719
150,8720
150,8721
150,8722
150,8723
150,8724
150,8725
150,8726
150,8727
150,8728
150,8729
150,8730
150,8731
150,8732
150,8733
150,8734
150,8735
150,8736
150,8737
150,8738
150,8739
150,8740
150,8741
150,8742
150,8743
150,8744
150,8745
150,8746
150,8747
150,8748
150,8749
150,8750
150,8751
150,8752
150,8753
150,8754
150,8755
150,8756
150,8757
150,8758
150,8759
150,8760
150,8761
150,8762
150,8763
150,8764
150,8765
150,8766
150,8767
150,8768
150,8769
150,8770
150,8771
150,8772
150,8773
150,8774
150,8775
150,8776
150,8777
150,8778
150,8779
150,8780
150,8781
150,8782
150,8783
150,8784
150,8785
150,8786
150,8787
150,8788
150,8789
150,8790
150,8791
150,8792
150,8793
150,8794
150,8795
150,8796
150,8797
150,8798
150,8799
150,8800
150,8801
150,8802
150,8803
150,8804
150,8805
150,8806
150,8807
150,8808
150,8809
150,8810
150,8811
150,8812
150,8813
150,8814
150,8815
150,8816
150,8817
150,8818
150,8819
150,8820
150,8821
150,8822
150,8823
150,8824
150,8825
150,8826
150,8827
150,8828
150,8829
150,8830
150,8831
150,8832
150,8833
150,8834
150,8835
150,8836
150,8837
150,8838
150,8839
150,8840
150,8841
150,8842
150,8843
150,8844
150,8845
150,8846
150,8847
150,8848
150,8849
150,8850
150,8851
150,8852
150,8853
150,8854
150,8855
150,8856
150,8857
150,8858
150,8859
150,8860
150,8861
150,8862
150,8863
150,8864
150,8865
150,8866
150,8867
150,8868
150,8869
150,8870
150,8871
150,8872
150,8873
150,8874
150,8875
150,8876
150,8877
150,8878
150,8879
150,8880
150,8881
150,8882
150,8883
150,8884
150,8885
150,8886
150,8887
150,8888
150,8889
150,8890
150,8891
150,8892
150,8893
150,8894
150,8895
150,8896
150,8897
150,8898
150,8899
150,8900
150,8901
150,8902
150,8903
150,8904
150,8905
150,8906
150,8907
150,8908
150,8909
150,8910
150,8911
150,8912
150,8913
150,8914
150,8915
150,8916
150,8917
150,8918
150,8919
150,8920
150,8921
150,8922
150,8923
150,8924
150,8925
150,8926
150,8927
150,8928
150,8929
150,8930
150,8931
150,8932
150,8933
150,8934
150,8935
150,8936
150,8937
150,8938
150,8939
150,8940
150,8941
150,8942
150,8943
150,8944
150,8945
150,8946
150,8947
150,8948
150,8949
150,8950
150,8951
150,8952
150,8953
150,8954
150,8955
150,8956
150,8957
150,8958
150,8959
150,8960
150,8961
150,8962
150,8963
150,8964
150,8965
150,8966
150,8967
150,8968
150,8969
150,8970
150,8971
150,8972
150,8973
150,8974
150,8975
150,8976
150,8977
150,8978
150,8979
150,8980
150,8981
150,8982
150,8983
150,8984
150,8985
150,8986
150,8987
150,8988
150,8989
150,8990
150,8991
150,8992
150,8993
150,8994
150,8995
150,8996
150,8997
150,8998
150,8999
0,9000
0,9001
0,9002
0,9003
0,9004
0,9005
0,9006
0,9007
0,9008
0,9009
0,9010
0,9011
0,9012
0,9013
0,9014
0,9015
0,9016
0,9017
0,9018
0,9019
0,9020
0,9021
0,9022
0,9023
0,9024
0,9025
0,9026
0,9027
0,9028
0,9029
0,9030
0,9031
0,9032
0,9033
0,9034
0,9035
0,9036
0,9037
0,9038
0,9039
0,9040
0,9041
0,9042
0,9043
0,9044
0,9045
0,9046
0,9047
0,9048
0,9049
0,9050
0,9051
0,9052
0,9053
0,9054
0,9055
0,9056
0,9057
0,9058
0,9059
0,9060
0,9061
0,9062
0,9063
0,9064
0,9065
0,9066
0,9067
0,9068
0,9069
0,9070
0,9071
0,9072
0,9073
0,9074
0,9075
0,9076
0,9077
0,9078
0,9079
0,9080
0,9081
0,9082
0,9083
0,9084
0,9085
0,9086
0,9087
0,9088
0,9089
0,9090
0,9091
0,9092
0,9093
0,9094
0,9095
0,9096
0,9097
0,9098
0,9099
0,9100
0,9101
0,9102
0,9103
0,9104
0,9105
0,9106
0,9107
0,9108
0,9109
0,9110
0,9111
0,9112
0,9113
0,9114
0,9115
0,9116
0,9117
0,9118
0,9119
0,9120
0,9121
0,9122
0,9123
0,9124
0,9125
0,9126
0,9127
0,9128
0,9129
0,9130
0,9131
0,9132
0,9133
0,9134
0,9135
0,9136
0,9137
0,9138
0,9139
0,9140
0,9141
0,9142
0,9143
0,9144
0,9145
0,9146
0,9147
0,9148
0,9149
0,9150
0,9151
0,9152
0,9153
0,9154
0,9155
0,9156
0,9157
0,9158
0,9159
0,9160
0,9161
0,9162
0,9163
0,9164
0,9165
0,9166
0,9167
0,9168
0,9169
0,9170
0,9171
0,9172
0,9173
0,9174
0,9175
0,9176
0,9177
0,9178
0,9179
0,9180
0,9181
0,9182
0,9183
0,9184
0,9185
0,9186
0,9187
0,9188
0,9189
0,9190
0,9191
0,9192
0,9193
0,9194
0,9195
0,9196
0,9197
0,9198
0,9199
0,9200
0,9201
0,9202
0,9203
0,9204
0,9205
0,9206
0,9207
0,9208
0,9209
0,9210
0,9211
0,9212
0,9213
0,9214
0,9215
0,9216
0,9217
0,9218
0,9219
0,9220
0,9221
0,9222
0,9223
0,9224
0,9225
0,9226
0,9227
0,9228
0,9229
0,9230
0,9231
0,9232
0,9233
0,9234
0,9235
0,9236
0,9237
0,9238
0,9239
0,9240
0,9241
0,9242
0,9243
0,9244
0,9245
0,9246
0,9247
0,9248
0,9249
0,9250
0,9251
0,9252
0,9253
0,9254
0,9255
0,9256
0,9257
0,9258
0,9259
0,9260
0,9261
0,9262
0,9263
0,9264
0,9265
0,9266
0,9267
0,9268
0,9269
0,9270
0,9271
0,9272
0,9273
0,9274
0,9275
0,9276
0,9277
0,9278
0,9279
0,9280
0,9281
0,9282
0,9283
0,9284
0,9285
0,9286
0,9287
0,9288
0,9289
0,9290
0,9291
0,9292
0,9293
0,9294
0,9295
0,9296
0,9297
0,9298
0,9299
0,9300
0,9301
0,9302
0,9303
0,9304
0,9305
0,9306
0,9307
0,9308
0,9309
0,9310
0,9311
0,9312
0,9313
0,9314
0,9315
0,9316
0,9317
0,9318
0,9319
0,9320
0,9321
0,9322
0,9323
0,9324
0,9325
0,9326
0,9327
0,9328
0,9329
0,9330
0,9331
0,9332
0,9333
0,9334
0,9335
0,9336
0,9337
0,9338
0,9339
0,9340
0,9341
0,9342
0,9343
0,9344
0,9345
0,9346
0,9347
0,9348
0,9349
0,9350
0,9351
0,9352
0,9353
0,9354
0,9355
0,9356
0,9357
0,9358
0,9359
0,9360
0,9361
0,9362
0,9363
0,9364
0,9365
0,9366
0,9367
0,9368
0,9369
0,9370
0,9371
0,9372
0,9373
0,9374
0,9375
0,9376
0,9377
0,9378
0,9379
0,9380
0,9381
0,9382
0,9383
0,9384
0,9385
0,9386
0,9387
0,9388
0,9389
0,9390
0,9391
0,9392
0,9393
0,9394
0,9395
0,9396
0,9397
0,9398
0,9399
0,9400
0,9401
0,9402
0,9403
0,9404
0,9405
0,9406
0,9407
0,9408
0,9409
0,9410
0,9411
0,9412
0,9413
0,9414
0,9415
0,9416
0,9417
0,9418
0,9419
0,9420
0,9421
0,9422
0,9423
0,9424
0,9425
0,9426
0,9427
0,9428
0,9429
0,9430
0,9431
0,9432
0,9433
0,9434
0,9435
0,9436
0,9437
0,9438
0,9439
0,9440
0,9441
0,9442
0,9443
0,9444
0,9445
0,9446
0,9447
0,9448
0,9449
0,9450
0,9451
0,9452
0,9453
0,9454
0,9455
0,9456
0,9457
0,9458
0,9459
0,9460
0,9461
0,9462
0,9463
0,9464
0,9465
0,9466
0,9467
0,9468
0,9469
0,9470
0,9471
0,9472
0,9473
0,9474
0,9475
0,9476
0,9477
0,9478
0,9479
0,9480
0,9481
0,9482
0,9483
0,9484
0,9485
0,9486
0,9487
0,9488
0,9489
0,9490
0,9491
0,9492
0,9493
0,9494
0,9495
0,9496
0,9497
0,9498
0,9499
150,9500
150,9501
150,9502
150,9503
150,9504
150,9505
150,9506
150,9507
150,9508
150,9509
150,9510
150,9511
150,9512
150,9513
150,9514
150,9515
150,9516
150,9517
150,9518
150,9519
150,9520
150,9521
150,9522
150,9523
150,9524
150,9525
150,9526
150,9527
150,9528
150,9529
150,9530
150,9531
150,9532
150,9533
150,9534
150,9535
150,9536
150,9537
150,9538
150,9539
150,9540
150,9541
150,9542
150,9543
150,9544
150,9545
150,9546
150,9547
150,9548
150,9549
150,9550
150,9551
150,9552
150,9553
150,9554
150,9555
150,9556
150,9557
150,9558
150,9559
150,9560
150,9561
150,9562
150,9563
150,9564
150,9565
150,9566
150,9567
150,9568
150,9569
150,9570
150,9571
150,9572
150,9573
150,9574
150,9575
150,9576
150,9577
150,9578
150,9579
150,9580
150,9581
150,9582
150,9583
150,9584
150,9585
150,9586
150,9587
150,9588
150,9589
150,9590
150,9591
150,9592
150,9593
150,9594
150,9595
150,9596
150,9597
150,9598
150,9599
150,9600
150,9601
150,9602
150,9603
150,9604
150,9605
150,9606
150,9607
150,9608
150,9609
150,9610
150,9611
150,9612
150,9613
150,9614
150,9615
150,9616
150,9617
150,9618
150,9619
150,9620
150,9621
150,9622
150,9623
150,9624
150,9625
150,9626
150,9627
150,9628
150,9629
150,9630
150,9631
150,9632
150,9633
150,9634
150,9635
150,9636
150,9637
150,9638
150,9639
150,9640
150,9641
150,9642
150,9643
150,9644
150,9645
150,9646
150,9647
150,9648
150,9649
150,9650
150,9651
150,9652
150,9653
150,9654
150,9655
150,9656
150,9657
150,9658
150,9659
150,9660
150,9661
150,9662
150,9663
150,9664
150,9665
150,9666
150,9667
150,9668
150,9669
150,9670
150,9671
150,9672
150,9673
150,9674
150,9675
150,9676
150,9677
150,9678
150,9679
150,9680
150,9681
150,9682
150,9683
150,9684
150,9685
150,9686
150,9687
150,9688
150,9689
150,9690
150,9691
150,9692
150,9693
150,9694
150,9695
150,9696
150,9697
150,9698
150,9699
150,9700
150,9701
150,9702
150,9703
150,9704
150,9705
150,9706
150,9707
150,9708
150,9709
150,9710
150,9711
150,9712
150,9713
150,9714
150,9715
150,9716
150,9717
150,9718
150,9719
150,9720
150,9721
150,9722
150,9723
150,9724
150,9725
150,9726
150,9727
150,9728
150,9729
150,9730
150,9731
150,9732
150,9733
150,9734
150,9735
150,9736
150,9737
150,9738
150,9739
150,9740
150,9741
150,9742
150,9743
150,9744
150,9745
150,9746
150,9747
150,9748
150,9749
150,9750
150,9751
150,9752
150,9753
150,9754
150,9755
150,9756
150,9757
150,9758
150,9759
150,9760
150,9761
150,9762
150,9763
150,9764
150,9765
150,9766
150,9767
150,9768
150,9769
150,9770
150,9771
150,9772
150,9773
150,9774
150,9775
150,9776
150,9777
150,9778
150,9779
150,9780
150,9781
150,9782
150,9783
150,9784
150,9785
150,9786
150,9787
150,9788
150,9789
150,9790
150,9791
150,9792
150,9793
150,9794
150,9795
150,9796
150,9797
150,9798
150,9799
150,9800
150,9801
150,9802
150,9803
150,9804
150,9805
150,9806
150,9807
150,9808
150,9809
150,9810
150,9811
150,9812
150,9813
150,9814
150,9815
150,9816
150,9817
150,9818
150,9819
150,9820
150,9821
150,9822
150,9823
150,9824
150,9825
150,9826
150,9827
150,9828
150,9829
150,9830
150,9831
150,9832
150,9833
150,9834
150,9835
150,9836
150,9837
150,9838
150,9839
150,9840
150,9841
150,9842
150,9843
150,9844
150,9845
150,9846
150,9847
150,9848
150,9849
150,9850
150,9851
150,9852
150,9853
150,9854
150,9855
150,9856
150,9857
150,9858
150,9859
150,9860
150,9861
150,9862
150,9863
150,9864
150,9865
150,9866
150,9867
150,9868
150,9869
150,9870
150,9871
150,9872
150,9873
150,9874
150,9875
150,9876
150,9877
150,9878
150,9879
150,9880
150,9881
150,9882
150,9883
150,9884
150,9885
150,9886
150,9887
150,9888
150,9889
150,9890
150,9891
150,9892
150,9893
150,9894
150,9895
150,9896
150,9897
150,9898
150,9899
150,9900
150,9901
150,9902
150,9903
150,9904
150,9905
150,9906
150,9907
150,9908
150,9909
150,9910
150,9911
150,9912
150,9913
150,9914
150,9915
150,9916
150,9917
150,9918
150,9919
150,9920
150,9921
150,9922
150,9923
150,9924
150,9925
150,9926
150,9927
150,9928
150,9929
150,9930
150,9931
150,9932
150,9933
150,9934
150,9935
150,9936
150,9937
150,9938
150,9939
150,9940
150,9941
150,9942
150,9943
150,9944
150,9945
150,9946
150,9947
150,9948
150,9949
150,9950
150,9951
150,9952
150,9953
150,9954
150,9955
150,9956
150,9957
150,9958
150,9959
150,9960
150,9961
150,9962
150,9963
150,9964
150,9965
150,9966
150,9967
150,9968
150,9969
150,9970
150,9971
150,9972
150,9973
150,9974
150,9975
150,9976
150,9977
150,9978
150,9979
150,9980
150,9981
150,9982
150,9983
150,9984
150,9985
150,9986
150,9987
150,9988
150,9989
150,9990
150,9991
150,9992
150,9993
150,9994
150,9995
150,9996
150,9997
150,9998
150,9999
0,10000
0,10001
0,10002
0,10003
0,10004
0,10005
0,10006
0,10007
0,10008
0,10009
0,10010
0,10011
0,10012
0,10013
0,10014
0,10015
0,10016
0,10017
0,10018
0,10019
0,10020
0,10021
0,10022
0,10023
0,10024
0,10025
0,10026
0,10027
0,10028
0,10029
0,10030
0,10031
0,10032
0,10033
0,10034
0,10035
0,10036
0,10037
0,10038
0,10039
0,10040
0,10041
0,10042
0,10043
0,10044
0,10045
0,10046
0,10047
0,10048
0,10049
0,10050
0,10051
0,10052
0,10053
0,10054
0,10055
0,10056
0,10057
0,10058
0,10059
0,10060
0,10061
0,10062
0,10063
0,10064
0,10065
0,10066
0,10067
0,10068
0,10069
0,10070
0,10071
0,10072
0,10073
0,10074
0,10075
0,10076
0,10077
0,10078
0,10079
0,10080
0,10081
0,10082
0,10083
0,10084
0,10085
0,10086
0,10087
0,10088
0,10089
0,10090
0,10091
0,10092
0,10093
0,10094
0,10095
0,10096
0,10097
0,10098
0,10099
0,10100
0,10101
0,10102
0,10103
0,10104
0,10105
0,10106
0,10107
0,10108
0,10109
0,10110
0,10111
0,10112
0,10113
0,10114
0,10115
0,10116
0,10117
0,10118
0,10119
0,10120
0,10121
0,10122
0,10123
0,10124
0,10125
0,10126
0,10127
0,10128
0,10129
0,10130
0,10131
0,10132
0,10133
0,10134
0,10135
0,10136
0,10137
0,10138
0,10139
0,10140
0,10141
0,10142
0,10143
0,10144
0,10145
0,10146
0,10147
0,10148
0,10149
0,10150
0,10151
0,10152
0,10153
0,10154
0,10155
0,10156
0,10157
0,10158
0,10159
0,10160
0,10161
0,10162
0,10163
0,10164
0,10165
0,10166
0,10167
0,10168
0,10169
0,10170
0,10171
0,10172
0,10173
0,10174
0,10175
0,10176
0,10177
0,10178
0,10179
0,10180
0,10181
0,10182
0,10183
0,10184
0,10185
0,10186
0,10187
0,10188
0,10189
0,10190
0,10191
0,10192
0,10193
0,10194
0,10195
0,10196
0,10197
0,10198
0,10199
0,10200
0,10201
0,10202
0,10203
0,10204
0,10205
0,10206
0,10207
0,10208
0,10209
0,10210
0,10211
0,10212
0,10213
0,10214
0,10215
0,10216
0,10217
0,10218
0,10219
0,10220
0,10221
0,10222
0,10223
0,10224
0,10225
0,10226
0,10227
0,10228
0,10229
0,10230
0,10231
0,10232
0,10233
0,10234
0,10235
0,10236
0,10237
0,10238
0,10239
0,10240
0,10241
0,10242
0,10243
0,10244
0,10245
0,10246
0,10247
0,10248
0,10249
0,10250
0,10251
0,10252
0,10253
0,10254
0,10255
0,10256
0,10257
0,10258
0,10259
0,10260
0,10261
0,10262
0,10263
0,10264
0,10265
0,10266
0,10267
0,10268
0,10269
0,10270
0,10271
0,10272
0,10273
0,10274
0,10275
0,10276
0,10277
0,10278
0,10279
0,10280
0,10281
0,10282
0,10283
0,10284
0,10285
0,10286
0,10287
0,10288
0,10289
0,10290
0,10291
0,10292
0,10293
0,10294
0,10295
0,10296
0,10297
0,10298
0,10299
0,10300
0,10301
0,10302
0,10303
0,10304
0,10305
0,10306
0,10307
0,10308
0,10309
0,10310
0,10311
0,10312
0,10313
0,10314
0,10315
0,10316
0,10317
0,10318
0,10319
0,10320
0,10321
0,10322
0,10323
0,10324
0,10325
0,10326
0,10327
0,10328
0,10329
0,10330
0,10331
0,10332
0,10333
0,10334
0,10335
0,10336
0,10337
0,10338
0,10339
0,10340
0,10341
0,10342
0,10343
0,10344
0,10345
0,10346
0,10347
0,10348
0,10349
0,10350
0,10351
0,10352
0,10353
0,10354
0,10355
0,10356
0,10357
0,10358
0,10359
0,10360
0,10361
0,10362
0,10363
0,10364
0,10365
0,10366
0,10367
0,10368
0,10369
0,10370
0,10371
0,10372
0,10373
0,10374
0,10375
0,10376
0,10377
0,10378
0,10379
0,10380
0,10381
0,10382
0,10383
0,10384
0,10385
0,10386
0,10387
0,10388
0,10389
0,10390
0,10391
0,10392
0,10393
0,10394
0,10395
0,10396
0,10397
0,10398
0,10399
0,10400
0,10401
0,10402
0,10403
0,10404
0,10405
0,10406
0,10407
0,10408
0,10409
0,10410
0,10411
0,10412
0,10413
0,10414
0,10415
0,10416
0,10417
0,10418
0,10419
0,10420
0,10421
0,10422
0,10423
0,10424
0,10425
0,10426
0,10427
0,10428
0,10429
0,10430
0,10431
0,10432
0,10433
0,10434
0,10435
0,10436
0,10437
0,10438
0,10439
0,10440
0,10441
0,10442
0,10443
0,10444
0,10445
0,10446
0,10447
0,10448
0,10449
0,10450
0,10451
0,10452
0,10453
0,10454
0,10455
0,10456
0,10457
0,10458
0,10459
0,10460
0,10461
0,10462
0,10463
0,10464
0,10465
0,10466
0,10467
0,10468
0,10469
0,10470
0,10471
0,10472
0,10473
0,10474
0,10475
0,10476
0,10477
0,10478
0,10479
0,10480
0,10481
0,10482
0,10483
0,10484
0,10485
0,10486
0,10487
0,10488
0,10489
0,10490
0,10491
0,10492
0,10493
0,10494
0,10495
0,10496
0,10497
0,10498
0,10499
150,10500
150,10501
150,10502
150,10503
150,10504
150,10505
150,10506
150,10507
150,10508
150,10509
150,10510
150,10511
150,10512
150,10513
150,10514
150,10515
150,10516
150,10517
150,10518
150,10519
150,10520
150,10521
150,10522
150,10523
150,10524
150,10525
150,10526
150,10527
150,10528
150,10529
150,10530
150,10531
150,10532
150,10533
150,10534
150,10535
150,10536
150,10537
150,10538
150,10539
150,10540
150,10541
150,10542
150,10543
150,10544
150,10545
150,10546
150,10547
150,10548
150,10549
150,10550
150,10551
150,10552
150,10553
150,10554
150,10555
150,10556
150,10557
150,10558
150,10559
150,10560
150,10561
150,10562
150,10563
150,10564
150,10565
150,10566
150,10567
150,10568
150,10569
150,10570
150,10571
150,10572
150,10573
150,10574
150,10575
150,10576
150,10577
150,10578
150,10579
150,10580
150,10581
150,10582
150,10583
150,10584
150,10585
150,10586
150,10587
150,10588
150,10589
150,10590
150,10591
150,10592
150,10593
150,10594
150,10595
150,10596
150,10597
150,10598
150,10599
150,10600
150,10601
150,10602
150,10603
150,10604
150,10605
150,10606
150,10607
150,10608
150,10609
150,10610
150,10611
150,10612
150,10613
150,10614
150,10615
150,10616
150,10617
150,10618
150,10619
150,10620
150,10621
150,10622
150,10623
150,10624
150,10625
150,10626
150,10627
150,10628
150,10629
150,10630
150,10631
150,10632
150,10633
150,10634
150,10635
150,10636
150,10637
150,10638
150,10639
150,10640
150,10641
150,10642
150,10643
150,10644
150,10645
150,10646
150,10647
150,10648
150,10649
150,10650
150,10651
150,10652
150,10653
150,10654
150,10655
150,10656
150,10657
150,10658
150,10659
150,10660
150,10661
150,10662
150,10663
150,10664
150,10665
150,10666
150,10667
150,10668
150,10669
150,10670
150,10671
150,10672
150,10673
150,10674
150,10675
150,10676
150,10677
150,10678
150,10679
150,10680
150,10681
150,10682
150,10683
150,10684
150,10685
150,10686
150,10687
150,10688
150,10689
150,10690
150,10691
150,10692
150,10693
150,10694
150,10695
150,10696
150,10697
150,10698
150,10699
150,10700
150,10701
150,10702
150,10703
150,10704
150,10705
150,10706
150,10707
150,10708
150,10709
150,10710
150,10711
150,10712
150,10713
150,10714
150,10715
150,10716
150,10717
150,10718
150,10719
150,10720
150,10721
150,10722
150,10723
150,10724
150,10725
150,10726
150,10727
150,10728
150,10729
150,10730
150,10731
150,10732
150,10733
150,10734
150,10735
150,10736
150,10737
150,10738
150,10739
150,10740
150,10741
150,10742
150,10743
150,10744
150,10745
150,10746
150,10747
150,10748
150,10749
150,10750
150,10751
150,10752
150,10753
150,10754
150,10755
150,10756
150,10757
150,10758
150,10759
150,10760
150,10761
150,10762
150,10763
150,10764
150,10765
150,10766
150,10767
150,10768
150,10769
150,10770
150,10771
150,10772
150,10773
150,10774
150,10775
150,10776
150,10777
150,10778
150,10779
150,10780
150,10781
150,10782
150,10783
150,10784
150,10785
150,10786
150,10787
150,10788
150,10789
150,10790
150,10791
150,10792
150,10793
150,10794
150,10795
150,10796
150,10797
150,10798
150,10799
150,10800
150,10801
150,10802
150,10803
150,10804
150,10805
150,10806
150,10807
150,10808
150,10809
150,10810
150,10811
150,10812
150,10813
150,10814
150,10815
150,10816
150,10817
150,10818
150,10819
150,10820
150,10821
150,10822
150,10823
150,10824
150,10825
150,10826
150,10827
150,10828
150,10829
150,10830
150,10831
150,10832
150,10833
150,10834
150,10835
150,10836
150,10837
150,10838
150,10839
150,10840
150,10841
150,10842
150,10843
150,10844
150,10845
150,10846
150,10847
150,10848
150,10849
150,10850
150,10851
150,10852
150,10853
150,10854
150,10855
150,10856
150,10857
150,10858
150,10859
150,10860
150,10861
150,10862
150,10863
150,10864
150,10865
150,10866
150,10867
150,10868
150,10869
150,10870
150,10871
150,10872
150,10873
150,10874
150,10875
150,10876
150,10877
150,10878
150,10879
150,10880
150,10881
150,10882
150,10883
150,10884
150,10885
150,10886
150,10887
150,10888
150,10889
150,10890
150,10891
150,10892
150,10893
150,10894
150,10895
150,10896
150,10897
150,10898
150,10899
150,10900
150,10901
150,10902
150,10903
150,10904
150,10905
150,10906
150,10907
150,10908
150,10909
150,10910
150,10911
150,10912
150,10913
150,10914
150,10915
150,10916
150,10917
150,10918
150,10919
150,10920
150,10921
150,10922
150,10923
150,10924
150,10925
150,10926
150,10927
150,10928
150,10929
150,10930
150,10931
150,10932
150,10933
150,10934
150,10935
150,10936
150,10937
150,10938
150,10939
150,10940
150,10941
150,10942
150,10943
150,10944
150,10945
150,10946
150,10947
150,10948
150,10949
150,10950
150,10951
150,10952
150,10953
150,10954
150,10955
150,10956
150,10957
150,10958
150,10959
150,10960
150,10961
150,10962
150,10963
150,10964
150,10965
150,10966
150,10967
150,10968
150,10969
150,10970
150,10971
150,10972
150,10973
150,10974
150,10975
150,10976
150,10977
150,10978
150,10979
150,10980
150,10981
150,10982
150,10983
150,10984
150,10985
150,10986
150,10987
150,10988
150,10989
150,10990
150,10991
150,10992
150,10993
150,10994
150,10995
150,10996
150,10997
150,10998
150,10999
0,11000
0,11001
0,11002
0,11003
0,11004
0,11005
0,11006
0,11007
0,11008
0,11009
0,11010
0,11011
0,11012
0,11013
0,11014
0,11015
0,11016
0,11017
0,11018
0,11019
0,11020
0,11021
0,11022
0,11023
0,11024
0,11025
0,11026
0,11027
0,11028
0,11029
0,11030
0,11031
0,11032
0,11033
0,11034
0,11035
0,11036
0,11037
0,11038
0,11039
0,11040
0,11041
0,11042
0,11043
0,11044
0,11045
0,11046
0,11047
0,11048
0,11049
0,11050
0,11051
0,11052
0,11053
0,11054
0,11055
0,11056
0,11057
0,11058
0,11059
0,11060
0,11061
0,11062
0,11063
0,11064
0,11065
0,11066
0,11067
0,11068
0,11069
0,11070
0,11071
0,11072
0,11073
0,11074
0,11075
0,11076
0,11077
0,11078
0,11079
0,11080
0,11081
0,11082
0,11083
0,11084
0,11085
0,11086
0,11087
0,11088
0,11089
0,11090
0,11091
0,11092
0,11093
0,11094
0,11095
0,11096
0,11097
0,11098
0,11099
0,11100
0,11101
0,11102
0,11103
0,11104
0,11105
0,11106
0,11107
0,11108
0,11109
0,11110
0,11111
0,11112
0,11113
0,11114
0,11115
0,11116
0,11117
0,11118
0,11119
0,11120
0,11121
0,11122
0,11123
0,11124
0,11125
0,11126
0,11127
0,11128
0,11129
0,11130
0,11131
0,11132
0,11133
0,11134
0,11135
0,11136
0,11137
0,11138
0,11139
0,11140
0,11141
0,11142
0,11143
0,11144
0,11145
0,11146
0,11147
0,11148
0,11149
0,11150
0,11151
0,11152
0,11153
0,11154
0,11155
0,11156
0,11157
0,11158
0,11159
0,11160
0,11161
0,11162
0,11163
0,11164
0,11165
0,11166
0,11167
0,11168
0,11169
0,11170
0,11171
0,11172
0,11173
0,11174
0,11175
0,11176
0,11177
0,11178
0,11179
0,11180
0,11181
0,11182
0,11183
0,11184
0,11185
0,11186
0,11187
0,11188
0,11189
0,11190
0,11191
0,11192
0,11193
0,11194
0,11195
0,11196
0,11197
0,11198
0,11199
0,11200
0,11201
0,11202
0,11203
0,11204
0,11205
0,11206
0,11207
0,11208
0,11209
0,11210
0,11211
0,11212
0,11213
0,11214
0,11215
0,11216
0,11217
0,11218
0,11219
0,11220
0,11221
0,11222
0,11223
0,11224
0,11225
0,11226
0,11227
0,11228
0,11229
0,11230
0,11231
0,11232
0,11233
0,11234
0,11235
0,11236
0,11237
0,11238
0,11239
0,11240
0,11241
0,11242
0,11243
0,11244
0,11245
0,11246
0,11247
0,11248
0,11249
0,11250
0,11251
0,11252
0,11253
0,11254
0,11255
0,11256
0,11257
0,11258
0,11259
0,11260
0,11261
0,11262
0,11263
0,11264
0,11265
0,11266
0,11267
0,11268
0,11269
0,11270
0,11271
0,11272
0,11273
0,11274
0,11275
0,11276
0,11277
0,11278
0,11279
0,11280
0,11281
0,11282
0,11283
0,11284
0,11285
0,11286
0,11287
0,11288
0,11289
0,11290
0,11291
0,11292
0,11293
0,11294
0,11295
0,11296
0,11297
0,11298
0,11299
0,11300
0,11301
0,11302
0,11303
0,11304
0,11305
0,11306
0,11307
0,11308
0,11309
0,11310
0,11311
0,11312
0,11313
0,11314
0,11315
0,11316
0,11317
0,11318
0,11319
0,11320
0,11321
0,11322
0,11323
0,11324
0,11325
0,11326
0,11327
0,11328
0,11329
0,11330
0,11331
0,11332
0,11333
0,11334
0,11335
0,11336
0,11337
0,11338
0,11339
0,11340
0,11341
0,11342
0,11343
0,11344
0,11345
0,11346
0,11347
0,11348
0,11349
0,11350
0,11351
0,11352
0,11353
0,11354
0,11355
0,11356
0,11357
0,11358
0,11359
0,11360
0,11361
0,11362
0,11363
0,11364
0,11365
0,11366
0,11367
0,11368
0,11369
0,11370
0,11371
0,11372
0,11373
0,11374
0,11375
0,11376
0,11377
0,11378
0,11379
0,11380
0,11381
0,11382
0,11383
0,11384
0,11385
0,11386
0,11387
0,11388
0,11389
0,11390
0,11391
0,11392
0,11393
0,11394
0,11395
0,11396
0,11397
0,11398
0,11399
0,11400
0,11401
0,11402
0,11403
0,11404
0,11405
0,11406
0,11407
0,11408
0,11409
0,11410
0,11411
0,11412
0,11413
0,11414
0,11415
0,11416
0,11417
0,11418
0,11419
0,11420
0,11421
0,11422
0,11423
0,11424
0,11425
0,11426
0,11427
0,11428
0,11429
0,11430
0,11431
0,11432
0,11433
0,11434
0,11435
0,11436
0,11437
0,11438
0,11439
0,11440
0,11441
0,11442
0,11443
0,11444
0,11445
0,11446
0,11447
0,11448
0,11449
0,11450
0,11451
0,11452
0,11453
0,11454
0,11455
0,11456
0,11457
0,11458
0,11459
0,11460
0,11461
0,11462
0,11463
0,11464
0,11465
0,11466
0,11467
0,11468
0,11469
0,11470
0,11471
0,11472
0,11473
0,11474
0,11475
0,11476
0,11477
0,11478
0,11479
0,11480
0,11481
0,11482
0,11483
0,11484
0,11485
0,11486
0,11487
0,11488
0,11489
0,11490
0,11491
0,11492
0,11493
0,11494
0,11495
0,11496
0,11497
0,11498
0,11499
150,11500
150,11501
150,11502
150,11503
150,11504
150,11505
150,11506
150,11507
150,11508
150,11509
150,11510
150,11511
150,11512
150,11513
150,11514
150,11515
150,11516
150,11517
150,11518
150,11519
150,11520
150,11521
150,11522
150,11523
150,11524
150,11525
150,11526
150,11527
150,11528
150,11529
150,11530
150,11531
150,11532
150,11533
150,11534
150,11535
150,11536
150,11537
150,11538
150,11539
150,11540
150,11541
150,11542
150,11543
150,11544
150,11545
150,11546
150,11547
150,11548
150,11549
150,11550
150,11551
150,11552
150,11553
150,11554
150,11555
150,11556
150,11557
150,11558
150,11559
150,11560
150,11561
150,11562
150,11563
150,11564
150,11565
150,11566
150,11567
150,11568
150,11569
150,11570
150,11571
150,11572
150,11573
150,11574
150,11575
150,11576
150,11577
150,11578
150,11579
150,11580
150,11581
150,11582
150,11583
150,11584
150,11585
150,11586
150,11587
150,11588
150,11589
150,11590
150,11591
150,11592
150,11593
150,11594
150,11595
150,11596
150,11597
150,11598
150,11599
150,11600
150,11601
150,11602
150,11603
150,11604
150,11605
150,11606
150,11607
150,11608
150,11609
150,11610
150,11611
150,11612
150,11613
150,11614
150,11615
150,11616
150,11617
150,11618
150,11619
150,11620
150,11621
150,11622
150,11623
150,11624
150,11625
150,11626
150,11627
150,11628
150,11629
150,11630
150,11631
150,11632
150,11633
150,11634
150,11635
150,11636
150,11637
150,11638
150,11639
150,11640
150,11641
150,11642
150,11643
150,11644
150,11645
150,11646
150,11647
150,11648
150,11649
150,11650
150,11651
150,11652
150,11653
150,11654
150,11655
150,11656
150,11657
150,11658
150,11659
150,11660
150,11661
150,11662
150,11663
150,11664
150,11665
150,11666
150,11667
150,11668
150,11669
150,11670
150,11671
150,11672
150,11673
150,11674
150,11675
150,11676
150,11677
150,11678
150,11679
150,11680
150,11681
150,11682
150,11683
150,11684
150,11685
150,11686
150,11687
150,11688
150,11689
150,11690
150,11691
150,11692
150,11693
150,11694
150,11695
150,11696
150,11697
150,11698
150,11699
150,11700
150,11701
150,11702
150,11703
150,11704
150,11705
150,11706
150,11707
150,11708
150,11709
150,11710
150,11711
150,11712
150,11713
150,11714
150,11715
150,11716
150,11717
150,11718
150,11719
150,11720
150,11721
150,11722
150,11723
150,11724
150,11725
150,11726
150,11727
150,11728
150,11729
150,11730
150,11731
150,11732
150,11733
150,11734
150,11735
150,11736
150,11737
150,11738
150,11739
150,11740
150,11741
150,11742
150,11743
150,11744
150,11745
150,11746
150,11747
150,11748
150,11749
150,11750
150,11751
150,11752
150,11753
150,11754
150,11755
150,11756
150,11757
150,11758
150,11759
150,11760
150,11761
150,11762
150,11763
150,11764
150,11765
150,11766
150,11767
150,11768
150,11769
150,11770
150,11771
150,11772
150,11773
150,11774
150,11775
150,11776
150,11777
150,11778
150,11779
150,11780
150,11781
150,11782
150,11783
150,11784
150,11785
150,11786
150,11787
150,11788
150,11789
150,11790
150,11791
150,11792
150,11793
150,11794
150,11795
150,11796
150,11797
150,11798
150,11799
150,11800
150,11801
150,11802
150,11803
150,11804
150,11805
150,11806
150,11807
150,11808
150,11809
150,11810
150,11811
150,11812
150,11813
150,11814
150,11815
150,11816
150,11817
150,11818
150,11819
150,11820
150,11821
150,11822
150,11823
150,11824
150,11825
150,11826
150,11827
150,11828
150,11829
150,11830
150,11831
150,11832
150,11833
150,11834
150,11835
150,11836
150,11837
150,11838
150,11839
150,11840
150,11841
150,11842
150,11843
150,11844
150,11845
150,11846
150,11847
150,11848
150,11849
150,11850
150,11851
150,11852
150,11853
150,11854
150,11855
150,11856
150,11857
150,11858
150,11859
150,11860
150,11861
150,11862
150,11863
150,11864
150,11865
150,11866
150,11867
150,11868
150,11869
150,11870
150,11871
150,11872
150,11873
150,11874
150,11875
150,11876
150,11877
150,11878
150,11879
150,11880
150,11881
150,11882
150,11883
150,11884
150,11885
150,11886
150,11887
150,11888
150,11889
150,11890
150,11891
150,11892
150,11893
150,11894
150,11895
150,11896
150,11897
150,11898
150,11899
150,11900
150,11901
150,11902
150,11903
150,11904
150,11905
150,11906
150,11907
150,11908
150,11909
150,11910
150,11911
150,11912
150,11913
150,11914
150,11915
150,11916
150,11917
150,11918
150,11919
150,11920
150,11921
150,11922
150,11923
