#Digilent WaveForms Logic Analyzer Acquisition
#Device Name: Discovery2
#Serial Number: SN:210321AA2ABB
#Date Time: 2024-08-13 19:45:19.267
#Sample rate: 500Hz
#Samples: 4096

Time (s),Data,DV,MISO,MOSI,SCK
-2.494,3501,1,1,0,1
-2.492,3053,1,1,0,1
-2.49,2485,1,1,0,1
-2.488,1810,1,1,0,1
-2.486,1094,1,1,0,1
-2.484,410,1,1,0,1
-2.482,29,1,1,0,1
-2.48,2,1,1,0,1
-2.478,0,1,1,0,1
-2.476,0,1,1,0,1
-2.474,0,1,1,0,1
-2.472,0,1,1,0,1
-2.47,0,1,1,0,1
-2.468,0,1,1,0,1
-2.466,0,1,1,0,1
-2.464,0,1,1,0,1
-2.462,0,1,1,0,1
-2.46,0,1,1,0,1
-2.458,0,1,1,0,1
-2.456,33,1,1,0,1
-2.454,140,1,1,0,1
-2.452,298,1,1,0,1
-2.45,502,1,1,0,1
-2.448,755,1,1,0,1
-2.446,1045,1,1,0,1
-2.444,1350,1,1,0,1
-2.442,1641,1,1,0,1
-2.44,1891,1,1,0,1
-2.438,2088,1,1,0,1
-2.436,2233,1,1,0,1
-2.434,2345,1,1,0,1
-2.432,2437,1,1,0,1
-2.43,2514,1,1,0,1
-2.428,2578,1,1,0,1
-2.426,2622,1,1,0,1
-2.424,2645,1,1,0,1
-2.422,2641,1,1,0,1
-2.42,2617,1,1,0,1
-2.418,2586,1,1,0,1
-2.416,2559,1,1,0,1
-2.414,2549,1,1,0,1
-2.412,2549,1,1,0,1
-2.41,2553,1,1,0,1
-2.408,2547,1,1,0,1
-2.406,2526,1,1,0,1
-2.404,2491,1,1,0,1
-2.402,2449,1,1,0,1
-2.4,2410,1,1,0,1
-2.398,2390,1,1,0,1
-2.396,2394,1,1,0,1
-2.394,2413,1,1,0,1
-2.392,2430,1,1,0,1
-2.39,2435,1,1,0,1
-2.388,2417,1,1,0,1
-2.386,2393,1,1,0,1
-2.384,2373,1,1,0,1
-2.382,2363,1,1,0,1
-2.38,2369,1,1,0,1
-2.378,2379,1,1,0,1
-2.376,2386,1,1,0,1
-2.374,2385,1,1,0,1
-2.372,2370,1,1,0,1
-2.37,2347,1,1,0,1
-2.368,2329,1,1,0,1
-2.366,2322,1,1,0,1
-2.364,2335,1,1,0,1
-2.362,2365,1,1,0,1
-2.36,2401,1,1,0,1
-2.358,2426,1,1,0,1
-2.356,2437,1,1,0,1
-2.354,2422,1,1,0,1
-2.352,2394,1,1,0,1
-2.35,2365,1,1,0,1
-2.348,2350,1,1,0,1
-2.346,2350,1,1,0,1
-2.344,2359,1,1,0,1
-2.342,2365,1,1,0,1
-2.34,2362,1,1,0,1
-2.338,2349,1,1,0,1
-2.336,2327,1,1,0,1
-2.334,2309,1,1,0,1
-2.332,2303,1,1,0,1
-2.33,2319,1,1,0,1
-2.328,2347,1,1,0,1
-2.326,2378,1,1,0,1
-2.324,2397,1,1,0,1
-2.322,2403,1,1,0,1
-2.32,2393,1,1,0,1
-2.318,2379,1,1,0,1
-2.316,2373,1,1,0,1
-2.314,2381,1,1,0,1
-2.312,2402,1,1,0,1
-2.31,2422,1,1,0,1
-2.308,2434,1,1,0,1
-2.306,2426,1,1,0,1
-2.304,2407,1,1,0,1
-2.302,2386,1,1,0,1
-2.3,2375,1,1,0,1
-2.298,2381,1,1,0,1
-2.296,2406,1,1,0,1
-2.294,2443,1,1,0,1
-2.292,2475,1,1,0,1
-2.29,2493,1,1,0,1
-2.288,2491,1,1,0,1
-2.286,2477,1,1,0,1
-2.284,2463,1,1,0,1
-2.282,2465,1,1,0,1
-2.28,2479,1,1,0,1
-2.278,2500,1,1,0,1
-2.276,2513,1,1,0,1
-2.274,2509,1,1,0,1
-2.272,2491,1,1,0,1
-2.27,2463,1,1,0,1
-2.268,2437,1,1,0,1
-2.266,2415,1,1,0,1
-2.264,2411,1,1,0,1
-2.262,2421,1,1,0,1
-2.26,2437,1,1,0,1
-2.258,2449,1,1,0,1
-2.256,2449,1,1,0,1
-2.254,2430,1,1,0,1
-2.252,2405,1,1,0,1
-2.25,2382,1,1,0,1
-2.248,2372,1,1,0,1
-2.246,2371,1,1,0,1
-2.244,2373,1,1,0,1
-2.242,2374,1,1,0,1
-2.24,2366,1,1,0,1
-2.238,2350,1,1,0,1
-2.236,2329,1,1,0,1
-2.234,2312,1,1,0,1
-2.232,2308,1,1,0,1
-2.23,2317,1,1,0,1
-2.228,2334,1,1,0,1
-2.226,2347,1,1,0,1
-2.224,2346,1,1,0,1
-2.222,2323,1,1,0,1
-2.22,2281,1,1,0,1
-2.218,2234,1,1,0,1
-2.216,2195,1,1,0,1
-2.214,2173,1,1,0,1
-2.212,2169,1,1,0,1
-2.21,2173,1,1,0,1
-2.208,2175,1,1,0,1
-2.206,2170,1,1,0,1
-2.204,2153,1,1,0,1
-2.202,2125,1,1,0,1
-2.2,2101,1,1,0,1
-2.198,2089,1,1,0,1
-2.196,2089,1,1,0,1
-2.194,2094,1,1,0,1
-2.192,2095,1,1,0,1
-2.19,2071,1,1,0,1
-2.188,2022,1,1,0,1
-2.186,1959,1,1,0,1
-2.184,1897,1,1,0,1
-2.182,1846,1,1,0,1
-2.18,1814,1,1,0,1
-2.178,1795,1,1,0,1
-2.176,1777,1,1,0,1
-2.174,1753,1,1,0,1
-2.172,1711,1,1,0,1
-2.17,1654,1,1,0,1
-2.168,1595,1,1,0,1
-2.166,1549,1,1,0,1
-2.164,1525,1,1,0,1
-2.162,1528,1,1,0,1
-2.16,1551,1,1,0,1
-2.158,1577,1,1,0,1
-2.156,1593,1,1,0,1
-2.154,1591,1,1,0,1
-2.152,1577,1,1,0,1
-2.15,1561,1,1,0,1
-2.148,1557,1,1,0,1
-2.146,1565,1,1,0,1
-2.144,1580,1,1,0,1
-2.142,1591,1,1,0,1
-2.14,1590,1,1,0,1
-2.138,1574,1,1,0,1
-2.136,1551,1,1,0,1
-2.134,1533,1,1,0,1
-2.132,1535,1,1,0,1
-2.13,1560,1,1,0,1
-2.128,1596,1,1,0,1
-2.126,1634,1,1,0,1
-2.124,1660,1,1,0,1
-2.122,1673,1,1,0,1
-2.12,1670,1,1,0,1
-2.118,1660,1,1,0,1
-2.116,1655,1,1,0,1
-2.114,1663,1,1,0,1
-2.112,1682,1,1,0,1
-2.11,1702,1,1,0,1
-2.108,1717,1,1,0,1
-2.106,1721,1,1,0,1
-2.104,1718,1,1,0,1
-2.102,1713,1,1,0,1
-2.1,1710,1,1,0,1
-2.098,1723,1,1,0,1
-2.096,1751,1,1,0,1
-2.094,1784,1,1,0,1
-2.092,1807,1,1,0,1
-2.09,1809,1,1,0,1
-2.088,1783,1,1,0,1
-2.086,1748,1,1,0,1
-2.084,1717,1,1,0,1
-2.082,1701,1,1,0,1
-2.08,1705,1,1,0,1
-2.078,1723,1,1,0,1
-2.076,1749,1,1,0,1
-2.074,1769,1,1,0,1
-2.072,1775,1,1,0,1
-2.07,1769,1,1,0,1
-2.068,1759,1,1,0,1
-2.066,1755,1,1,0,1
-2.064,1765,1,1,0,1
-2.062,1788,1,1,0,1
-2.06,1817,1,1,0,1
-2.058,1836,1,1,0,1
-2.056,1839,1,1,0,1
-2.054,1823,1,1,0,1
-2.052,1802,1,1,0,1
-2.05,1785,1,1,0,1
-2.048,1782,1,1,0,1
-2.046,1796,1,1,0,1
-2.044,1817,1,1,0,1
-2.042,1836,1,1,0,1
-2.04,1841,1,1,0,1
-2.038,1830,1,1,0,1
-2.036,1811,1,1,0,1
-2.034,1790,1,1,0,1
-2.032,1782,1,1,0,1
-2.03,1790,1,1,0,1
-2.028,1810,1,1,0,1
-2.026,1834,1,1,0,1
-2.024,1850,1,1,0,1
-2.022,1851,1,1,0,1
-2.02,1839,1,1,0,1
-2.018,1823,1,1,0,1
-2.016,1817,1,1,0,1
-2.014,1825,1,1,0,1
-2.012,1843,1,1,0,1
-2.01,1867,1,1,0,1
-2.008,1885,1,1,0,1
-2.006,1891,1,1,0,1
-2.004,1881,1,1,0,1
-2.002,1869,1,1,0,1
-2,1864,1,1,0,1
-1.998,1873,1,1,0,1
-1.996,1890,1,1,0,1
-1.994,1901,1,1,0,1
-1.992,1903,1,1,0,1
-1.99,1894,1,1,0,1
-1.988,1871,1,1,0,1
-1.986,1839,1,1,0,1
-1.984,1813,1,1,0,1
-1.982,1801,1,1,0,1
-1.98,1802,1,1,0,1
-1.978,1814,1,1,0,1
-1.976,1830,1,1,0,1
-1.974,1835,1,1,0,1
-1.972,1822,1,1,0,1
-1.97,1794,1,1,0,1
-1.968,1763,1,1,0,1
-1.966,1754,1,1,0,1
-1.964,1773,1,1,0,1
-1.962,1813,1,1,0,1
-1.96,1859,1,1,0,1
-1.958,1891,1,1,0,1
-1.956,1902,1,1,0,1
-1.954,1893,1,1,0,1
-1.952,1875,1,1,0,1
-1.95,1862,1,1,0,1
-1.948,1865,1,1,0,1
-1.946,1885,1,1,0,1
-1.944,1915,1,1,0,1
-1.942,1941,1,1,0,1
-1.94,1949,1,1,0,1
-1.938,1942,1,1,0,1
-1.936,1923,1,1,0,1
-1.934,1905,1,1,0,1
-1.932,1897,1,1,0,1
-1.93,1905,1,1,0,1
-1.928,1925,1,1,0,1
-1.926,1949,1,1,0,1
-1.924,1972,1,1,0,1
-1.922,1980,1,1,0,1
-1.92,1971,1,1,0,1
-1.918,1950,1,1,0,1
-1.916,1933,1,1,0,1
-1.914,1928,1,1,0,1
-1.912,1935,1,1,0,1
-1.91,1947,1,1,0,1
-1.908,1955,1,1,0,1
-1.906,1949,1,1,0,1
-1.904,1929,1,1,0,1
-1.902,1909,1,1,0,1
-1.9,1901,1,1,0,1
-1.898,1906,1,1,0,1
-1.896,1926,1,1,0,1
-1.894,1955,1,1,0,1
-1.892,1979,1,1,0,1
-1.89,1989,1,1,0,1
-1.888,1974,1,1,0,1
-1.886,1950,1,1,0,1
-1.884,1929,1,1,0,1
-1.882,1919,1,1,0,1
-1.88,1931,1,1,0,1
-1.878,1954,1,1,0,1
-1.876,1975,1,1,0,1
-1.874,1987,1,1,0,1
-1.872,1981,1,1,0,1
-1.87,1959,1,1,0,1
-1.868,1933,1,1,0,1
-1.866,1918,1,1,0,1
-1.864,1923,1,1,0,1
-1.862,1941,1,1,0,1
-1.86,1965,1,1,0,1
-1.858,1987,1,1,0,1
-1.856,1997,1,1,0,1
-1.854,1994,1,1,0,1
-1.852,1985,1,1,0,1
-1.85,1975,1,1,0,1
-1.848,1971,1,1,0,1
-1.846,1975,1,1,0,1
-1.844,1983,1,1,0,1
-1.842,1987,1,1,0,1
-1.84,1974,1,1,0,1
-1.838,1951,1,1,0,1
-1.836,1925,1,1,0,1
-1.834,1905,1,1,0,1
-1.832,1903,1,1,0,1
-1.83,1923,1,1,0,1
-1.828,1951,1,1,0,1
-1.826,1983,1,1,0,1
-1.824,2002,1,1,0,1
-1.822,2001,1,1,0,1
-1.82,1986,1,1,0,1
-1.818,1970,1,1,0,1
-1.816,1963,1,1,0,1
-1.814,1973,1,1,0,1
-1.812,1993,1,1,0,1
-1.81,2012,1,1,0,1
-1.808,2026,1,1,0,1
-1.806,2025,1,1,0,1
-1.804,2009,1,1,0,1
-1.802,1981,1,1,0,1
-1.8,1959,1,1,0,1
-1.798,1954,1,1,0,1
-1.796,1961,1,1,0,1
-1.794,1977,1,1,0,1
-1.792,1994,1,1,0,1
-1.79,2001,1,1,0,1
-1.788,1993,1,1,0,1
-1.786,1978,1,1,0,1
-1.784,1967,1,1,0,1
-1.782,1970,1,1,0,1
-1.78,1989,1,1,0,1
-1.778,2017,1,1,0,1
-1.776,2044,1,1,0,1
-1.774,2065,1,1,0,1
-1.772,2063,1,1,0,1
-1.77,2053,1,1,0,1
-1.768,2040,1,1,0,1
-1.766,2039,1,1,0,1
-1.764,2057,1,1,0,1
-1.762,2082,1,1,0,1
-1.76,2111,1,1,0,1
-1.758,2134,1,1,0,1
-1.756,2137,1,1,0,1
-1.754,2122,1,1,0,1
-1.752,2098,1,1,0,1
-1.75,2076,1,1,0,1
-1.748,2071,1,1,0,1
-1.746,2083,1,1,0,1
-1.744,2106,1,1,0,1
-1.742,2131,1,1,0,1
-1.74,2145,1,1,0,1
-1.738,2145,1,1,0,1
-1.736,2134,1,1,0,1
-1.734,2125,1,1,0,1
-1.732,2129,1,1,0,1
-1.73,2148,1,1,0,1
-1.728,2175,1,1,0,1
-1.726,2199,1,1,0,1
-1.724,2214,1,1,0,1
-1.722,2215,1,1,0,1
-1.72,2207,1,1,0,1
-1.718,2199,1,1,0,1
-1.716,2201,1,1,0,1
-1.714,2215,1,1,0,1
-1.712,2242,1,1,0,1
-1.71,2267,1,1,0,1
-1.708,2279,1,1,0,1
-1.706,2274,1,1,0,1
-1.704,2247,1,1,0,1
-1.702,2210,1,1,0,1
-1.7,2174,1,1,0,1
-1.698,2151,1,1,0,1
-1.696,2143,1,1,0,1
-1.694,2142,1,1,0,1
-1.692,2139,1,1,0,1
-1.69,2122,1,1,0,1
-1.688,2083,1,1,0,1
-1.686,2029,1,1,0,1
-1.684,1973,1,1,0,1
-1.682,1925,1,1,0,1
-1.68,1894,1,1,0,1
-1.678,1876,1,1,0,1
-1.676,1863,1,1,0,1
-1.674,1845,1,1,0,1
-1.672,1819,1,1,0,1
-1.67,1788,1,1,0,1
-1.668,1762,1,1,0,1
-1.666,1745,1,1,0,1
-1.664,1747,1,1,0,1
-1.662,1763,1,1,0,1
-1.66,1785,1,1,0,1
-1.658,1803,1,1,0,1
-1.656,1806,1,1,0,1
-1.654,1797,1,1,0,1
-1.652,1781,1,1,0,1
-1.65,1774,1,1,0,1
-1.648,1779,1,1,0,1
-1.646,1797,1,1,0,1
-1.644,1821,1,1,0,1
-1.642,1841,1,1,0,1
-1.64,1850,1,1,0,1
-1.638,1851,1,1,0,1
-1.636,1849,1,1,0,1
-1.634,1853,1,1,0,1
-1.632,1870,1,1,0,1
-1.63,1895,1,1,0,1
-1.628,1922,1,1,0,1
-1.626,1941,1,1,0,1
-1.624,1947,1,1,0,1
-1.622,1938,1,1,0,1
-1.62,1913,1,1,0,1
-1.618,1891,1,1,0,1
-1.616,1880,1,1,0,1
-1.614,1883,1,1,0,1
-1.612,1895,1,1,0,1
-1.61,1908,1,1,0,1
-1.608,1914,1,1,0,1
-1.606,1910,1,1,0,1
-1.604,1910,1,1,0,1
-1.602,1933,1,1,0,1
-1.6,2002,1,1,0,1
-1.598,2137,1,1,0,1
-1.596,2339,1,1,0,1
-1.594,2605,1,1,0,1
-1.592,2927,1,1,0,1
-1.59,3300,1,1,0,1
-1.588,3697,1,1,0,1
-1.586,4022,1,1,0,1
-1.584,4059,1,1,0,1
-1.582,4061,1,1,0,1
-1.58,4061,1,1,0,1
-1.578,4061,1,1,0,1
-1.576,4061,1,1,0,1
-1.574,4061,1,1,0,1
-1.572,3929,1,1,0,1
-1.57,3614,1,1,0,1
-1.568,3167,1,1,0,1
-1.566,2615,1,1,0,1
-1.564,1974,1,1,0,1
-1.562,1301,1,1,0,1
-1.56,652,1,1,0,1
-1.558,98,1,1,0,1
-1.556,4,1,1,0,1
-1.554,0,1,1,0,1
-1.552,0,1,1,0,1
-1.55,0,1,1,0,1
-1.548,0,1,1,0,1
-1.546,0,1,1,0,1
-1.544,0,1,1,0,1
-1.542,0,1,1,0,1
-1.54,0,1,1,0,1
-1.538,0,1,1,0,1
-1.536,0,1,1,0,1
-1.534,0,1,1,0,1
-1.532,22,1,1,0,1
-1.53,143,1,1,0,1
-1.528,338,1,1,0,1
-1.526,583,1,1,0,1
-1.524,853,1,1,0,1
-1.522,1125,1,1,0,1
-1.52,1385,1,1,0,1
-1.518,1626,1,1,0,1
-1.516,1848,1,1,0,1
-1.514,2053,1,1,0,1
-1.512,2230,1,1,0,1
-1.51,2374,1,1,0,1
-1.508,2475,1,1,0,1
-1.506,2532,1,1,0,1
-1.504,2547,1,1,0,1
-1.502,2537,1,1,0,1
-1.5,2516,1,1,0,1
-1.498,2503,1,1,0,1
-1.496,2507,1,1,0,1
-1.494,2519,1,1,0,1
-1.492,2532,1,1,0,1
-1.49,2531,1,1,0,1
-1.488,2510,1,1,0,1
-1.486,2476,1,1,0,1
-1.484,2441,1,1,0,1
-1.482,2414,1,1,0,1
-1.48,2407,1,1,0,1
-1.478,2413,1,1,0,1
-1.476,2423,1,1,0,1
-1.474,2427,1,1,0,1
-1.472,2421,1,1,0,1
-1.47,2406,1,1,0,1
-1.468,2391,1,1,0,1
-1.466,2385,1,1,0,1
-1.464,2390,1,1,0,1
-1.462,2406,1,1,0,1
-1.46,2423,1,1,0,1
-1.458,2431,1,1,0,1
-1.456,2426,1,1,0,1
-1.454,2405,1,1,0,1
-1.452,2373,1,1,0,1
-1.45,2347,1,1,0,1
-1.448,2334,1,1,0,1
-1.446,2337,1,1,0,1
-1.444,2346,1,1,0,1
-1.442,2354,1,1,0,1
-1.44,2354,1,1,0,1
-1.438,2343,1,1,0,1
-1.436,2325,1,1,0,1
-1.434,2311,1,1,0,1
-1.432,2315,1,1,0,1
-1.43,2333,1,1,0,1
-1.428,2358,1,1,0,1
-1.426,2379,1,1,0,1
-1.424,2387,1,1,0,1
-1.422,2379,1,1,0,1
-1.42,2361,1,1,0,1
-1.418,2339,1,1,0,1
-1.416,2325,1,1,0,1
-1.414,2330,1,1,0,1
-1.412,2346,1,1,0,1
-1.41,2365,1,1,0,1
-1.408,2378,1,1,0,1
-1.406,2374,1,1,0,1
-1.404,2357,1,1,0,1
-1.402,2339,1,1,0,1
-1.4,2325,1,1,0,1
-1.398,2329,1,1,0,1
-1.396,2351,1,1,0,1
-1.394,2383,1,1,0,1
-1.392,2409,1,1,0,1
-1.39,2419,1,1,0,1
-1.388,2413,1,1,0,1
-1.386,2398,1,1,0,1
-1.384,2386,1,1,0,1
-1.382,2383,1,1,0,1
-1.38,2397,1,1,0,1
-1.378,2421,1,1,0,1
-1.376,2445,1,1,0,1
-1.374,2457,1,1,0,1
-1.372,2450,1,1,0,1
-1.37,2427,1,1,0,1
-1.368,2399,1,1,0,1
-1.366,2381,1,1,0,1
-1.364,2379,1,1,0,1
-1.362,2396,1,1,0,1
-1.36,2421,1,1,0,1
-1.358,2443,1,1,0,1
-1.356,2450,1,1,0,1
-1.354,2442,1,1,0,1
-1.352,2429,1,1,0,1
-1.35,2421,1,1,0,1
-1.348,2428,1,1,0,1
-1.346,2449,1,1,0,1
-1.344,2473,1,1,0,1
-1.342,2489,1,1,0,1
-1.34,2490,1,1,0,1
-1.338,2477,1,1,0,1
-1.336,2452,1,1,0,1
-1.334,2426,1,1,0,1
-1.332,2415,1,1,0,1
-1.33,2422,1,1,0,1
-1.328,2441,1,1,0,1
-1.326,2458,1,1,0,1
-1.324,2461,1,1,0,1
-1.322,2447,1,1,0,1
-1.32,2417,1,1,0,1
-1.318,2381,1,1,0,1
-1.316,2355,1,1,0,1
-1.314,2347,1,1,0,1
-1.312,2350,1,1,0,1
-1.31,2358,1,1,0,1
-1.308,2361,1,1,0,1
-1.306,2349,1,1,0,1
-1.304,2323,1,1,0,1
-1.302,2287,1,1,0,1
-1.3,2254,1,1,0,1
-1.298,2239,1,1,0,1
-1.296,2243,1,1,0,1
-1.294,2255,1,1,0,1
-1.292,2267,1,1,0,1
-1.29,2265,1,1,0,1
-1.288,2247,1,1,0,1
-1.286,2217,1,1,0,1
-1.284,2184,1,1,0,1
-1.282,2162,1,1,0,1
-1.28,2153,1,1,0,1
-1.278,2150,1,1,0,1
-1.276,2145,1,1,0,1
-1.274,2127,1,1,0,1
-1.272,2091,1,1,0,1
-1.27,2037,1,1,0,1
-1.268,1980,1,1,0,1
-1.266,1934,1,1,0,1
-1.264,1905,1,1,0,1
-1.262,1891,1,1,0,1
-1.26,1884,1,1,0,1
-1.258,1871,1,1,0,1
-1.256,1843,1,1,0,1
-1.254,1803,1,1,0,1
-1.252,1757,1,1,0,1
-1.25,1717,1,1,0,1
-1.248,1692,1,1,0,1
-1.246,1686,1,1,0,1
-1.244,1687,1,1,0,1
-1.242,1685,1,1,0,1
-1.24,1667,1,1,0,1
-1.238,1634,1,1,0,1
-1.236,1593,1,1,0,1
-1.234,1555,1,1,0,1
-1.232,1530,1,1,0,1
-1.23,1529,1,1,0,1
-1.228,1544,1,1,0,1
-1.226,1565,1,1,0,1
-1.224,1577,1,1,0,1
-1.222,1577,1,1,0,1
-1.22,1566,1,1,0,1
-1.218,1557,1,1,0,1
-1.216,1557,1,1,0,1
-1.214,1571,1,1,0,1
-1.212,1595,1,1,0,1
-1.21,1620,1,1,0,1
-1.208,1638,1,1,0,1
-1.206,1640,1,1,0,1
-1.204,1625,1,1,0,1
-1.202,1603,1,1,0,1
-1.2,1588,1,1,0,1
-1.198,1589,1,1,0,1
-1.196,1610,1,1,0,1
-1.194,1641,1,1,0,1
-1.192,1671,1,1,0,1
-1.19,1688,1,1,0,1
-1.188,1688,1,1,0,1
-1.186,1679,1,1,0,1
-1.184,1671,1,1,0,1
-1.182,1675,1,1,0,1
-1.18,1691,1,1,0,1
-1.178,1718,1,1,0,1
-1.176,1746,1,1,0,1
-1.174,1762,1,1,0,1
-1.172,1762,1,1,0,1
-1.17,1749,1,1,0,1
-1.168,1730,1,1,0,1
-1.166,1721,1,1,0,1
-1.164,1726,1,1,0,1
-1.162,1745,1,1,0,1
-1.16,1767,1,1,0,1
-1.158,1783,1,1,0,1
-1.156,1787,1,1,0,1
-1.154,1778,1,1,0,1
-1.152,1763,1,1,0,1
-1.15,1753,1,1,0,1
-1.148,1759,1,1,0,1
-1.146,1777,1,1,0,1
-1.144,1803,1,1,0,1
-1.142,1823,1,1,0,1
-1.14,1831,1,1,0,1
-1.138,1819,1,1,0,1
-1.136,1802,1,1,0,1
-1.134,1783,1,1,0,1
-1.132,1779,1,1,0,1
-1.13,1790,1,1,0,1
-1.128,1812,1,1,0,1
-1.126,1831,1,1,0,1
-1.124,1839,1,1,0,1
-1.122,1833,1,1,0,1
-1.12,1813,1,1,0,1
-1.118,1789,1,1,0,1
-1.116,1775,1,1,0,1
-1.114,1775,1,1,0,1
-1.112,1790,1,1,0,1
-1.11,1813,1,1,0,1
-1.108,1829,1,1,0,1
-1.106,1833,1,1,0,1
-1.104,1825,1,1,0,1
-1.102,1811,1,1,0,1
-1.1,1803,1,1,0,1
-1.098,1810,1,1,0,1
-1.096,1829,1,1,0,1
-1.094,1853,1,1,0,1
-1.092,1874,1,1,0,1
-1.09,1880,1,1,0,1
-1.088,1869,1,1,0,1
-1.086,1849,1,1,0,1
-1.084,1829,1,1,0,1
-1.082,1822,1,1,0,1
-1.08,1831,1,1,0,1
-1.078,1850,1,1,0,1
-1.076,1870,1,1,0,1
-1.074,1881,1,1,0,1
-1.072,1875,1,1,0,1
-1.07,1855,1,1,0,1
-1.068,1832,1,1,0,1
-1.066,1819,1,1,0,1
-1.064,1826,1,1,0,1
-1.062,1844,1,1,0,1
-1.06,1868,1,1,0,1
-1.058,1885,1,1,0,1
-1.056,1889,1,1,0,1
-1.054,1877,1,1,0,1
-1.052,1861,1,1,0,1
-1.05,1849,1,1,0,1
-1.048,1854,1,1,0,1
-1.046,1874,1,1,0,1
-1.044,1900,1,1,0,1
-1.042,1923,1,1,0,1
-1.04,1931,1,1,0,1
-1.038,1924,1,1,0,1
-1.036,1905,1,1,0,1
-1.034,1887,1,1,0,1
-1.032,1882,1,1,0,1
-1.03,1891,1,1,0,1
-1.028,1910,1,1,0,1
-1.026,1930,1,1,0,1
-1.024,1940,1,1,0,1
-1.022,1934,1,1,0,1
-1.02,1913,1,1,0,1
-1.018,1890,1,1,0,1
-1.016,1875,1,1,0,1
-1.014,1877,1,1,0,1
-1.012,1891,1,1,0,1
-1.01,1909,1,1,0,1
-1.008,1919,1,1,0,1
-1.006,1917,1,1,0,1
-1.004,1902,1,1,0,1
-1.002,1883,1,1,0,1
-1,1871,1,1,0,1
-0.998,1878,1,1,0,1
-0.996,1897,1,1,0,1
-0.994,1923,1,1,0,1
-0.992,1942,1,1,0,1
-0.99,1949,1,1,0,1
-0.988,1938,1,1,0,1
-0.986,1914,1,1,0,1
-0.984,1895,1,1,0,1
-0.982,1891,1,1,0,1
-0.98,1903,1,1,0,1
-0.978,1927,1,1,0,1
-0.976,1950,1,1,0,1
-0.974,1963,1,1,0,1
-0.972,1958,1,1,0,1
-0.97,1941,1,1,0,1
-0.968,1922,1,1,0,1
-0.966,1913,1,1,0,1
-0.964,1922,1,1,0,1
-0.962,1941,1,1,0,1
-0.96,1962,1,1,0,1
-0.958,1973,1,1,0,1
-0.956,1967,1,1,0,1
-0.954,1946,1,1,0,1
-0.952,1923,1,1,0,1
-0.95,1903,1,1,0,1
-0.948,1903,1,1,0,1
-0.946,1916,1,1,0,1
-0.944,1935,1,1,0,1
-0.9419999999999999,1950,1,1,0,1
-0.9399999999999999,1954,1,1,0,1
-0.9379999999999999,1943,1,1,0,1
-0.9360000000000001,1925,1,1,0,1
-0.9340000000000001,1909,1,1,0,1
-0.9320000000000001,1906,1,1,0,1
-0.93,1919,1,1,0,1
-0.928,1945,1,1,0,1
-0.926,1967,1,1,0,1
-0.924,1981,1,1,0,1
-0.922,1979,1,1,0,1
-0.92,1965,1,1,0,1
-0.918,1947,1,1,0,1
-0.916,1939,1,1,0,1
-0.914,1945,1,1,0,1
-0.912,1966,1,1,0,1
-0.91,1994,1,1,0,1
-0.908,2009,1,1,0,1
-0.906,2008,1,1,0,1
-0.904,1991,1,1,0,1
-0.902,1966,1,1,0,1
-0.9,1950,1,1,0,1
-0.898,1949,1,1,0,1
-0.896,1964,1,1,0,1
-0.894,1988,1,1,0,1
-0.892,2008,1,1,0,1
-0.89,2014,1,1,0,1
-0.888,2005,1,1,0,1
-0.886,1987,1,1,0,1
-0.884,1971,1,1,0,1
-0.882,1971,1,1,0,1
-0.88,1987,1,1,0,1
-0.878,2012,1,1,0,1
-0.876,2037,1,1,0,1
-0.874,2047,1,1,0,1
-0.872,2042,1,1,0,1
-0.87,2023,1,1,0,1
-0.868,2001,1,1,0,1
-0.866,1988,1,1,0,1
-0.864,1992,1,1,0,1
-0.862,2006,1,1,0,1
-0.86,2025,1,1,0,1
-0.858,2035,1,1,0,1
-0.856,2034,1,1,0,1
-0.854,2019,1,1,0,1
-0.852,1997,1,1,0,1
-0.85,1981,1,1,0,1
-0.848,1981,1,1,0,1
-0.846,1997,1,1,0,1
-0.844,2022,1,1,0,1
-0.842,2043,1,1,0,1
-0.84,2053,1,1,0,1
-0.838,2043,1,1,0,1
-0.836,2027,1,1,0,1
-0.834,2013,1,1,0,1
-0.832,2013,1,1,0,1
-0.83,2028,1,1,0,1
-0.828,2054,1,1,0,1
-0.826,2076,1,1,0,1
-0.824,2090,1,1,0,1
-0.822,2089,1,1,0,1
-0.82,2075,1,1,0,1
-0.8179999999999999,2063,1,1,0,1
-0.8159999999999999,2060,1,1,0,1
-0.8139999999999999,2070,1,1,0,1
-0.8120000000000001,2091,1,1,0,1
-0.8100000000000001,2115,1,1,0,1
-0.8080000000000001,2129,1,1,0,1
-0.806,2130,1,1,0,1
-0.804,2121,1,1,0,1
-0.802,2111,1,1,0,1
-0.8,2111,1,1,0,1
-0.798,2129,1,1,0,1
-0.796,2157,1,1,0,1
-0.794,2188,1,1,0,1
-0.792,2212,1,1,0,1
-0.79,2219,1,1,0,1
-0.788,2211,1,1,0,1
-0.786,2196,1,1,0,1
-0.784,2184,1,1,0,1
-0.782,2187,1,1,0,1
-0.78,2209,1,1,0,1
-0.778,2242,1,1,0,1
-0.776,2271,1,1,0,1
-0.774,2284,1,1,0,1
-0.772,2276,1,1,0,1
-0.77,2251,1,1,0,1
-0.768,2219,1,1,0,1
-0.766,2194,1,1,0,1
-0.764,2183,1,1,0,1
-0.762,2183,1,1,0,1
-0.76,2187,1,1,0,1
-0.758,2183,1,1,0,1
-0.756,2165,1,1,0,1
-0.754,2134,1,1,0,1
-0.752,2093,1,1,0,1
-0.75,2052,1,1,0,1
-0.748,2015,1,1,0,1
-0.746,1991,1,1,0,1
-0.744,1970,1,1,0,1
-0.742,1946,1,1,0,1
-0.74,1910,1,1,0,1
-0.738,1863,1,1,0,1
-0.736,1814,1,1,0,1
-0.734,1773,1,1,0,1
-0.732,1752,1,1,0,1
-0.73,1754,1,1,0,1
-0.728,1769,1,1,0,1
-0.726,1785,1,1,0,1
-0.724,1791,1,1,0,1
-0.722,1783,1,1,0,1
-0.72,1768,1,1,0,1
-0.718,1753,1,1,0,1
-0.716,1751,1,1,0,1
-0.714,1767,1,1,0,1
-0.712,1798,1,1,0,1
-0.71,1829,1,1,0,1
-0.708,1851,1,1,0,1
-0.706,1861,1,1,0,1
-0.704,1854,1,1,0,1
-0.702,1842,1,1,0,1
-0.7,1835,1,1,0,1
-0.698,1845,1,1,0,1
-0.696,1867,1,1,0,1
-0.694,1895,1,1,0,1
-0.6919999999999999,1915,1,1,0,1
-0.6899999999999999,1919,1,1,0,1
-0.6879999999999999,1907,1,1,0,1
-0.6860000000000001,1885,1,1,0,1
-0.6840000000000001,1866,1,1,0,1
-0.6820000000000001,1861,1,1,0,1
-0.68,1873,1,1,0,1
-0.678,1898,1,1,0,1
-0.676,1923,1,1,0,1
-0.674,1930,1,1,0,1
-0.672,1918,1,1,0,1
-0.67,1895,1,1,0,1
-0.668,1873,1,1,0,1
-0.666,1876,1,1,0,1
-0.664,1922,1,1,0,1
-0.662,2018,1,1,0,1
-0.66,2166,1,1,0,1
-0.658,2357,1,1,0,1
-0.656,2589,1,1,0,1
-0.654,2869,1,1,0,1
-0.652,3207,1,1,0,1
-0.65,3594,1,1,0,1
-0.648,3987,1,1,0,1
-0.646,4058,1,1,0,1
-0.644,4061,1,1,0,1
-0.642,4061,1,1,0,1
-0.64,4061,1,1,0,1
-0.638,4061,1,1,0,1
-0.636,4061,1,1,0,1
-0.634,3965,1,1,0,1
-0.632,3695,1,1,0,1
-0.63,3293,1,1,0,1
-0.628,2782,1,1,0,1
-0.626,2163,1,1,0,1
-0.624,1470,1,1,0,1
-0.622,769,1,1,0,1
-0.62,135,1,1,0,1
-0.618,7,1,1,0,1
-0.616,0,1,1,0,1
-0.614,0,1,1,0,1
-0.612,0,1,1,0,1
-0.61,0,1,1,0,1
-0.608,0,1,1,0,1
-0.606,0,1,1,0,1
-0.604,0,1,1,0,1
-0.602,0,1,1,0,1
-0.6,0,1,1,0,1
-0.598,0,1,1,0,1
-0.596,0,1,1,0,1
-0.594,11,1,1,0,1
-0.592,108,1,1,0,1
-0.59,271,1,1,0,1
-0.588,474,1,1,0,1
-0.586,708,1,1,0,1
-0.584,969,1,1,0,1
-0.582,1253,1,1,0,1
-0.58,1540,1,1,0,1
-0.578,1811,1,1,0,1
-0.576,2047,1,1,0,1
-0.574,2235,1,1,0,1
-0.572,2370,1,1,0,1
-0.57,2455,1,1,0,1
-0.5679999999999999,2506,1,1,0,1
-0.5659999999999999,2539,1,1,0,1
-0.5639999999999999,2566,1,1,0,1
-0.5620000000000001,2587,1,1,0,1
-0.5600000000000001,2602,1,1,0,1
-0.5580000000000001,2599,1,1,0,1
-0.556,2577,1,1,0,1
-0.554,2538,1,1,0,1
-0.552,2494,1,1,0,1
-0.55,2459,1,1,0,1
-0.548,2443,1,1,0,1
-0.546,2442,1,1,0,1
-0.544,2450,1,1,0,1
-0.542,2453,1,1,0,1
-0.54,2445,1,1,0,1
-0.538,2423,1,1,0,1
-0.536,2396,1,1,0,1
-0.534,2375,1,1,0,1
-0.532,2366,1,1,0,1
-0.53,2377,1,1,0,1
-0.528,2397,1,1,0,1
-0.526,2417,1,1,0,1
-0.524,2426,1,1,0,1
-0.522,2418,1,1,0,1
-0.52,2399,1,1,0,1
-0.518,2377,1,1,0,1
-0.516,2363,1,1,0,1
-0.514,2364,1,1,0,1
-0.512,2377,1,1,0,1
-0.51,2390,1,1,0,1
-0.508,2397,1,1,0,1
-0.506,2387,1,1,0,1
-0.504,2363,1,1,0,1
-0.502,2335,1,1,0,1
-0.5,2315,1,1,0,1
-0.498,2313,1,1,0,1
-0.496,2326,1,1,0,1
-0.494,2348,1,1,0,1
-0.492,2365,1,1,0,1
-0.49,2371,1,1,0,1
-0.488,2359,1,1,0,1
-0.486,2339,1,1,0,1
-0.484,2321,1,1,0,1
-0.482,2315,1,1,0,1
-0.48,2324,1,1,0,1
-0.478,2342,1,1,0,1
-0.476,2362,1,1,0,1
-0.474,2373,1,1,0,1
-0.472,2365,1,1,0,1
-0.47,2351,1,1,0,1
-0.468,2339,1,1,0,1
-0.466,2337,1,1,0,1
-0.464,2346,1,1,0,1
-0.462,2366,1,1,0,1
-0.46,2390,1,1,0,1
-0.458,2405,1,1,0,1
-0.456,2405,1,1,0,1
-0.454,2390,1,1,0,1
-0.452,2370,1,1,0,1
-0.45,2357,1,1,0,1
-0.448,2363,1,1,0,1
-0.446,2385,1,1,0,1
-0.444,2413,1,1,0,1
-0.442,2437,1,1,0,1
-0.44,2443,1,1,0,1
-0.438,2435,1,1,0,1
-0.436,2415,1,1,0,1
-0.434,2402,1,1,0,1
-0.432,2399,1,1,0,1
-0.43,2414,1,1,0,1
-0.428,2439,1,1,0,1
-0.426,2462,1,1,0,1
-0.424,2475,1,1,0,1
-0.422,2473,1,1,0,1
-0.42,2458,1,1,0,1
-0.418,2443,1,1,0,1
-0.416,2442,1,1,0,1
-0.414,2454,1,1,0,1
-0.412,2477,1,1,0,1
-0.41,2501,1,1,0,1
-0.408,2515,1,1,0,1
-0.406,2510,1,1,0,1
-0.404,2487,1,1,0,1
-0.402,2459,1,1,0,1
-0.4,2438,1,1,0,1
-0.398,2431,1,1,0,1
-0.396,2443,1,1,0,1
-0.394,2459,1,1,0,1
-0.392,2471,1,1,0,1
-0.39,2469,1,1,0,1
-0.388,2451,1,1,0,1
-0.386,2426,1,1,0,1
-0.384,2403,1,1,0,1
-0.382,2390,1,1,0,1
-0.38,2390,1,1,0,1
-0.378,2402,1,1,0,1
-0.376,2414,1,1,0,1
-0.374,2414,1,1,0,1
-0.372,2397,1,1,0,1
-0.37,2367,1,1,0,1
-0.368,2335,1,1,0,1
-0.366,2314,1,1,0,1
-0.364,2309,1,1,0,1
-0.362,2315,1,1,0,1
-0.36,2325,1,1,0,1
-0.358,2324,1,1,0,1
-0.356,2307,1,1,0,1
-0.354,2273,1,1,0,1
-0.352,2235,1,1,0,1
-0.35,2205,1,1,0,1
-0.348,2189,1,1,0,1
-0.346,2186,1,1,0,1
-0.344,2188,1,1,0,1
-0.342,2187,1,1,0,1
-0.34,2170,1,1,0,1
-0.338,2137,1,1,0,1
-0.336,2093,1,1,0,1
-0.334,2052,1,1,0,1
-0.332,2019,1,1,0,1
-0.33,1998,1,1,0,1
-0.328,1986,1,1,0,1
-0.326,1972,1,1,0,1
-0.324,1945,1,1,0,1
-0.322,1900,1,1,0,1
-0.32,1845,1,1,0,1
-0.318,1789,1,1,0,1
-0.316,1746,1,1,0,1
-0.314,1721,1,1,0,1
-0.312,1711,1,1,0,1
-0.31,1706,1,1,0,1
-0.308,1693,1,1,0,1
-0.306,1670,1,1,0,1
-0.304,1637,1,1,0,1
-0.302,1603,1,1,0,1
-0.3,1580,1,1,0,1
-0.298,1575,1,1,0,1
-0.296,1583,1,1,0,1
-0.294,1598,1,1,0,1
-0.292,1613,1,1,0,1
-0.29,1612,1,1,0,1
-0.288,1597,1,1,0,1
-0.286,1572,1,1,0,1
-0.284,1551,1,1,0,1
-0.282,1545,1,1,0,1
-0.28,1554,1,1,0,1
-0.278,1577,1,1,0,1
-0.276,1599,1,1,0,1
-0.274,1610,1,1,0,1
-0.272,1606,1,1,0,1
-0.27,1590,1,1,0,1
-0.268,1577,1,1,0,1
-0.266,1575,1,1,0,1
-0.264,1589,1,1,0,1
-0.262,1611,1,1,0,1
-0.26,1638,1,1,0,1
-0.258,1655,1,1,0,1
-0.256,1658,1,1,0,1
-0.254,1647,1,1,0,1
-0.252,1631,1,1,0,1
-0.25,1623,1,1,0,1
-0.248,1631,1,1,0,1
-0.246,1655,1,1,0,1
-0.244,1687,1,1,0,1
-0.242,1711,1,1,0,1
-0.24,1722,1,1,0,1
-0.238,1717,1,1,0,1
-0.236,1704,1,1,0,1
-0.234,1693,1,1,0,1
-0.232,1698,1,1,0,1
-0.23,1717,1,1,0,1
-0.228,1745,1,1,0,1
-0.226,1769,1,1,0,1
-0.224,1782,1,1,0,1
-0.222,1780,1,1,0,1
-0.22,1763,1,1,0,1
-0.218,1741,1,1,0,1
-0.216,1730,1,1,0,1
-0.214,1738,1,1,0,1
-0.212,1759,1,1,0,1
-0.21,1786,1,1,0,1
-0.208,1806,1,1,0,1
-0.206,1810,1,1,0,1
-0.204,1799,1,1,0,1
-0.202,1778,1,1,0,1
-0.2,1763,1,1,0,1
-0.198,1763,1,1,0,1
-0.196,1779,1,1,0,1
-0.194,1803,1,1,0,1
-0.192,1826,1,1,0,1
-0.19,1833,1,1,0,1
-0.188,1821,1,1,0,1
-0.186,1799,1,1,0,1
-0.184,1780,1,1,0,1
-0.182,1777,1,1,0,1
-0.18,1789,1,1,0,1
-0.178,1811,1,1,0,1
-0.176,1834,1,1,0,1
-0.174,1846,1,1,0,1
-0.172,1844,1,1,0,1
-0.17,1829,1,1,0,1
-0.168,1810,1,1,0,1
-0.166,1799,1,1,0,1
-0.164,1803,1,1,0,1
-0.162,1819,1,1,0,1
-0.16,1839,1,1,0,1
-0.158,1852,1,1,0,1
-0.156,1852,1,1,0,1
-0.154,1841,1,1,0,1
-0.152,1825,1,1,0,1
-0.15,1811,1,1,0,1
-0.148,1815,1,1,0,1
-0.146,1831,1,1,0,1
-0.144,1854,1,1,0,1
-0.142,1873,1,1,0,1
-0.14,1877,1,1,0,1
-0.138,1867,1,1,0,1
-0.136,1849,1,1,0,1
-0.134,1833,1,1,0,1
-0.132,1829,1,1,0,1
-0.13,1842,1,1,0,1
-0.128,1867,1,1,0,1
-0.126,1893,1,1,0,1
-0.124,1906,1,1,0,1
-0.122,1901,1,1,0,1
-0.12,1883,1,1,0,1
-0.118,1865,1,1,0,1
-0.116,1855,1,1,0,1
-0.114,1863,1,1,0,1
-0.112,1883,1,1,0,1
-0.11,1907,1,1,0,1
-0.108,1923,1,1,0,1
-0.106,1922,1,1,0,1
-0.104,1902,1,1,0,1
-0.102,1878,1,1,0,1
-0.1,1861,1,1,0,1
-0.098,1858,1,1,0,1
-0.096,1870,1,1,0,1
-0.094,1891,1,1,0,1
-0.092,1909,1,1,0,1
-0.09,1911,1,1,0,1
-0.08799999999999999,1897,1,1,0,1
-0.08599999999999999,1873,1,1,0,1
-0.08400000000000001,1853,1,1,0,1
-0.082,1847,1,1,0,1
-0.08,1859,1,1,0,1
-0.078,1879,1,1,0,1
-0.076,1901,1,1,0,1
-0.074,1910,1,1,0,1
-0.07199999999999999,1907,1,1,0,1
-0.07000000000000001,1897,1,1,0,1
-0.068,1885,1,1,0,1
-0.066,1882,1,1,0,1
-0.064,1893,1,1,0,1
-0.062,1914,1,1,0,1
-0.06,1939,1,1,0,1
-0.058,1954,1,1,0,1
-0.056,1951,1,1,0,1
-0.054,1933,1,1,0,1
-0.052,1908,1,1,0,1
-0.05,1893,1,1,0,1
-0.048,1891,1,1,0,1
-0.046,1903,1,1,0,1
-0.044,1922,1,1,0,1
-0.042,1935,1,1,0,1
-0.04,1935,1,1,0,1
-0.038,1924,1,1,0,1
-0.036,1905,1,1,0,1
-0.034,1893,1,1,0,1
-0.032,1897,1,1,0,1
-0.03,1918,1,1,0,1
-0.028,1949,1,1,0,1
-0.026,1979,1,1,0,1
-0.024,1996,1,1,0,1
-0.022,1995,1,1,0,1
-0.02,1981,1,1,0,1
-0.018,1967,1,1,0,1
-0.016,1963,1,1,0,1
-0.014,1972,1,1,0,1
-0.012,1990,1,1,0,1
-0.01,2011,1,1,0,1
-0.008,2026,1,1,0,1
-0.006,2025,1,1,0,1
-0.004,2007,1,1,0,1
-0.002,1981,1,1,0,1
0,1962,1,1,0,1
0.002,1958,1,1,0,1
0.004,1966,1,1,0,1
0.006,1981,1,1,0,1
0.008,1991,1,1,0,1
0.01,1986,1,1,0,1
0.012,1965,1,1,0,1
0.014,1939,1,1,0,1
0.016,1922,1,1,0,1
0.018,1922,1,1,0,1
0.02,1935,1,1,0,1
0.022,1957,1,1,0,1
0.024,1973,1,1,0,1
0.026,1979,1,1,0,1
0.028,1973,1,1,0,1
0.03,1955,1,1,0,1
0.032,1934,1,1,0,1
0.034,1924,1,1,0,1
0.036,1933,1,1,0,1
0.038,1956,1,1,0,1
0.04,1981,1,1,0,1
0.042,2001,1,1,0,1
0.044,2004,1,1,0,1
0.046,1993,1,1,0,1
0.048,1974,1,1,0,1
0.05,1960,1,1,0,1
0.052,1958,1,1,0,1
0.054,1966,1,1,0,1
0.056,1979,1,1,0,1
0.058,1993,1,1,0,1
0.06,1994,1,1,0,1
0.062,1979,1,1,0,1
0.064,1957,1,1,0,1
0.066,1938,1,1,0,1
0.068,1934,1,1,0,1
0.07000000000000001,1949,1,1,0,1
0.07199999999999999,1973,1,1,0,1
0.074,1996,1,1,0,1
0.076,2009,1,1,0,1
0.078,2005,1,1,0,1
0.08,1991,1,1,0,1
0.082,1972,1,1,0,1
0.08400000000000001,1963,1,1,0,1
0.08599999999999999,1974,1,1,0,1
0.08799999999999999,1999,1,1,0,1
0.09,2024,1,1,0,1
0.092,2039,1,1,0,1
0.094,2041,1,1,0,1
0.096,2030,1,1,0,1
0.098,2015,1,1,0,1
0.1,2005,1,1,0,1
0.102,2011,1,1,0,1
0.104,2031,1,1,0,1
0.106,2063,1,1,0,1
0.108,2089,1,1,0,1
0.11,2100,1,1,0,1
0.112,2093,1,1,0,1
0.114,2078,1,1,0,1
0.116,2069,1,1,0,1
0.118,2074,1,1,0,1
0.12,2093,1,1,0,1
0.122,2119,1,1,0,1
0.124,2140,1,1,0,1
0.126,2149,1,1,0,1
0.128,2137,1,1,0,1
0.13,2110,1,1,0,1
0.132,2085,1,1,0,1
0.134,2073,1,1,0,1
0.136,2079,1,1,0,1
0.138,2102,1,1,0,1
0.14,2131,1,1,0,1
0.142,2151,1,1,0,1
0.144,2155,1,1,0,1
0.146,2145,1,1,0,1
0.148,2126,1,1,0,1
0.15,2118,1,1,0,1
0.152,2127,1,1,0,1
0.154,2153,1,1,0,1
0.156,2187,1,1,0,1
0.158,2220,1,1,0,1
0.16,2243,1,1,0,1
0.162,2247,1,1,0,1
0.164,2241,1,1,0,1
0.166,2231,1,1,0,1
0.168,2230,1,1,0,1
0.17,2237,1,1,0,1
0.172,2249,1,1,0,1
0.174,2251,1,1,0,1
0.176,2237,1,1,0,1
0.178,2202,1,1,0,1
0.18,2151,1,1,0,1
0.182,2101,1,1,0,1
0.184,2067,1,1,0,1
0.186,2054,1,1,0,1
0.188,2046,1,1,0,1
0.19,2041,1,1,0,1
0.192,2021,1,1,0,1
0.194,1983,1,1,0,1
0.196,1933,1,1,0,1
0.198,1875,1,1,0,1
0.2,1828,1,1,0,1
0.202,1803,1,1,0,1
0.204,1798,1,1,0,1
0.206,1805,1,1,0,1
0.208,1812,1,1,0,1
0.21,1811,1,1,0,1
0.212,1797,1,1,0,1
0.214,1778,1,1,0,1
0.216,1766,1,1,0,1
0.218,1770,1,1,0,1
0.22,1789,1,1,0,1
0.222,1820,1,1,0,1
0.224,1850,1,1,0,1
0.226,1867,1,1,0,1
0.228,1871,1,1,0,1
0.23,1866,1,1,0,1
0.232,1861,1,1,0,1
0.234,1865,1,1,0,1
0.236,1883,1,1,0,1
0.238,1909,1,1,0,1
0.24,1935,1,1,0,1
0.242,1955,1,1,0,1
0.244,1957,1,1,0,1
0.246,1942,1,1,0,1
0.248,1918,1,1,0,1
0.25,1903,1,1,0,1
0.252,1903,1,1,0,1
0.254,1919,1,1,0,1
0.256,1943,1,1,0,1
0.258,1961,1,1,0,1
0.26,1969,1,1,0,1
0.262,1962,1,1,0,1
0.264,1942,1,1,0,1
0.266,1922,1,1,0,1
0.268,1911,1,1,0,1
0.27,1917,1,1,0,1
0.272,1947,1,1,0,1
0.274,1996,1,1,0,1
0.276,2063,1,1,0,1
0.278,2152,1,1,0,1
0.28,2270,1,1,0,1
0.282,2429,1,1,0,1
0.284,2653,1,1,0,1
0.286,2950,1,1,0,1
0.288,3307,1,1,0,1
0.29,3702,1,1,0,1
0.292,4023,1,1,0,1
0.294,4059,1,1,0,1
0.296,4061,1,1,0,1
0.298,4061,1,1,0,1
0.3,4061,1,1,0,1
0.302,4062,1,1,0,1
0.304,4045,1,1,0,1
0.306,3875,1,1,0,1
0.308,3561,1,1,0,1
0.31,3110,1,1,0,1
0.312,2525,1,1,0,1
0.314,1833,1,1,0,1
0.316,1107,1,1,0,1
0.318,428,1,1,0,1
0.32,32,1,1,0,1
0.322,1,1,1,0,1
0.324,0,1,1,0,1
0.326,0,1,1,0,1
0.328,0,1,1,0,1
0.33,0,1,1,0,1
0.332,0,1,1,0,1
0.334,0,1,1,0,1
0.336,0,1,1,0,1
0.338,0,1,1,0,1
0.34,0,1,1,0,1
0.342,0,1,1,0,1
0.344,4,1,1,0,1
0.346,73,1,1,0,1
0.348,202,1,1,0,1
0.35,382,1,1,0,1
0.352,609,1,1,0,1
0.354,869,1,1,0,1
0.356,1148,1,1,0,1
0.358,1425,1,1,0,1
0.36,1676,1,1,0,1
0.362,1890,1,1,0,1
0.364,2062,1,1,0,1
0.366,2199,1,1,0,1
0.368,2316,1,1,0,1
0.37,2415,1,1,0,1
0.372,2495,1,1,0,1
0.374,2551,1,1,0,1
0.376,2577,1,1,0,1
0.378,2573,1,1,0,1
0.38,2545,1,1,0,1
0.382,2510,1,1,0,1
0.384,2481,1,1,0,1
0.386,2467,1,1,0,1
0.388,2463,1,1,0,1
0.39,2465,1,1,0,1
0.392,2459,1,1,0,1
0.394,2442,1,1,0,1
0.396,2411,1,1,0,1
0.398,2375,1,1,0,1
0.4,2347,1,1,0,1
0.402,2339,1,1,0,1
0.404,2346,1,1,0,1
0.406,2361,1,1,0,1
0.408,2377,1,1,0,1
0.41,2379,1,1,0,1
0.412,2365,1,1,0,1
0.414,2346,1,1,0,1
0.416,2328,1,1,0,1
0.418,2325,1,1,0,1
0.42,2339,1,1,0,1
0.422,2359,1,1,0,1
0.424,2377,1,1,0,1
0.426,2379,1,1,0,1
0.428,2365,1,1,0,1
0.43,2338,1,1,0,1
0.432,2311,1,1,0,1
0.434,2297,1,1,0,1
0.436,2302,1,1,0,1
0.438,2323,1,1,0,1
0.44,2348,1,1,0,1
0.442,2365,1,1,0,1
0.444,2370,1,1,0,1
0.446,2355,1,1,0,1
0.448,2331,1,1,0,1
0.45,2315,1,1,0,1
0.452,2315,1,1,0,1
0.454,2333,1,1,0,1
0.456,2359,1,1,0,1
0.458,2380,1,1,0,1
0.46,2387,1,1,0,1
0.462,2377,1,1,0,1
0.464,2358,1,1,0,1
0.466,2341,1,1,0,1
0.468,2334,1,1,0,1
0.47,2346,1,1,0,1
0.472,2365,1,1,0,1
0.474,2386,1,1,0,1
0.476,2393,1,1,0,1
0.478,2387,1,1,0,1
0.48,2371,1,1,0,1
0.482,2350,1,1,0,1
0.484,2341,1,1,0,1
0.486,2345,1,1,0,1
0.488,2363,1,1,0,1
0.49,2386,1,1,0,1
0.492,2399,1,1,0,1
0.494,2395,1,1,0,1
0.496,2379,1,1,0,1
0.498,2357,1,1,0,1
0.5,2345,1,1,0,1
0.502,2349,1,1,0,1
0.504,2371,1,1,0,1
0.506,2399,1,1,0,1
0.508,2423,1,1,0,1
0.51,2437,1,1,0,1
0.512,2428,1,1,0,1
0.514,2411,1,1,0,1
0.516,2399,1,1,0,1
0.518,2404,1,1,0,1
0.52,2421,1,1,0,1
0.522,2449,1,1,0,1
0.524,2473,1,1,0,1
0.526,2481,1,1,0,1
0.528,2472,1,1,0,1
0.53,2451,1,1,0,1
0.532,2429,1,1,0,1
0.534,2418,1,1,0,1
0.536,2422,1,1,0,1
0.538,2439,1,1,0,1
0.54,2461,1,1,0,1
0.542,2474,1,1,0,1
0.544,2469,1,1,0,1
0.546,2449,1,1,0,1
0.548,2423,1,1,0,1
0.55,2403,1,1,0,1
0.552,2398,1,1,0,1
0.554,2410,1,1,0,1
0.556,2427,1,1,0,1
0.5580000000000001,2441,1,1,0,1
0.5600000000000001,2438,1,1,0,1
0.5620000000000001,2418,1,1,0,1
0.5639999999999999,2391,1,1,0,1
0.5659999999999999,2366,1,1,0,1
0.5679999999999999,2354,1,1,0,1
0.57,2355,1,1,0,1
0.572,2366,1,1,0,1
0.574,2379,1,1,0,1
0.576,2380,1,1,0,1
0.578,2362,1,1,0,1
0.58,2331,1,1,0,1
0.582,2297,1,1,0,1
0.584,2274,1,1,0,1
0.586,2266,1,1,0,1
0.588,2269,1,1,0,1
0.59,2273,1,1,0,1
0.592,2266,1,1,0,1
0.594,2239,1,1,0,1
0.596,2199,1,1,0,1
0.598,2151,1,1,0,1
0.6,2115,1,1,0,1
0.602,2095,1,1,0,1
0.604,2090,1,1,0,1
0.606,2086,1,1,0,1
0.608,2075,1,1,0,1
0.61,2046,1,1,0,1
0.612,2002,1,1,0,1
0.614,1946,1,1,0,1
0.616,1893,1,1,0,1
0.618,1855,1,1,0,1
0.62,1834,1,1,0,1
0.622,1826,1,1,0,1
0.624,1815,1,1,0,1
0.626,1791,1,1,0,1
0.628,1753,1,1,0,1
0.63,1703,1,1,0,1
0.632,1653,1,1,0,1
0.634,1615,1,1,0,1
0.636,1595,1,1,0,1
0.638,1593,1,1,0,1
0.64,1597,1,1,0,1
0.642,1594,1,1,0,1
0.644,1577,1,1,0,1
0.646,1550,1,1,0,1
0.648,1521,1,1,0,1
0.65,1505,1,1,0,1
0.652,1507,1,1,0,1
0.654,1522,1,1,0,1
0.656,1543,1,1,0,1
0.658,1559,1,1,0,1
0.66,1564,1,1,0,1
0.662,1556,1,1,0,1
0.664,1540,1,1,0,1
0.666,1527,1,1,0,1
0.668,1528,1,1,0,1
0.67,1546,1,1,0,1
0.672,1572,1,1,0,1
0.674,1595,1,1,0,1
0.676,1605,1,1,0,1
0.678,1598,1,1,0,1
0.68,1582,1,1,0,1
0.6820000000000001,1567,1,1,0,1
0.6840000000000001,1565,1,1,0,1
0.6860000000000001,1577,1,1,0,1
0.6879999999999999,1605,1,1,0,1
0.6899999999999999,1634,1,1,0,1
0.6919999999999999,1654,1,1,0,1
0.694,1661,1,1,0,1
0.696,1657,1,1,0,1
0.698,1650,1,1,0,1
0.7,1651,1,1,0,1
0.702,1667,1,1,0,1
0.704,1693,1,1,0,1
0.706,1725,1,1,0,1
0.708,1749,1,1,0,1
0.71,1757,1,1,0,1
0.712,1747,1,1,0,1
0.714,1726,1,1,0,1
0.716,1709,1,1,0,1
0.718,1705,1,1,0,1
0.72,1716,1,1,0,1
0.722,1738,1,1,0,1
0.724,1758,1,1,0,1
0.726,1769,1,1,0,1
0.728,1765,1,1,0,1
0.73,1749,1,1,0,1
0.732,1736,1,1,0,1
0.734,1735,1,1,0,1
0.736,1749,1,1,0,1
0.738,1773,1,1,0,1
0.74,1800,1,1,0,1
0.742,1815,1,1,0,1
0.744,1814,1,1,0,1
0.746,1799,1,1,0,1
0.748,1779,1,1,0,1
0.75,1765,1,1,0,1
0.752,1767,1,1,0,1
0.754,1781,1,1,0,1
0.756,1801,1,1,0,1
0.758,1813,1,1,0,1
0.76,1813,1,1,0,1
0.762,1799,1,1,0,1
0.764,1779,1,1,0,1
0.766,1764,1,1,0,1
0.768,1762,1,1,0,1
0.77,1775,1,1,0,1
0.772,1799,1,1,0,1
0.774,1818,1,1,0,1
0.776,1825,1,1,0,1
0.778,1817,1,1,0,1
0.78,1797,1,1,0,1
0.782,1779,1,1,0,1
0.784,1772,1,1,0,1
0.786,1784,1,1,0,1
0.788,1809,1,1,0,1
0.79,1832,1,1,0,1
0.792,1845,1,1,0,1
0.794,1845,1,1,0,1
0.796,1835,1,1,0,1
0.798,1821,1,1,0,1
0.8,1815,1,1,0,1
0.802,1825,1,1,0,1
0.804,1847,1,1,0,1
0.806,1874,1,1,0,1
0.8080000000000001,1894,1,1,0,1
0.8100000000000001,1900,1,1,0,1
0.8120000000000001,1894,1,1,0,1
0.8139999999999999,1877,1,1,0,1
0.8159999999999999,1861,1,1,0,1
0.8179999999999999,1858,1,1,0,1
0.82,1867,1,1,0,1
0.822,1886,1,1,0,1
0.824,1902,1,1,0,1
0.826,1905,1,1,0,1
0.828,1891,1,1,0,1
0.83,1867,1,1,0,1
0.832,1843,1,1,0,1
0.834,1835,1,1,0,1
0.836,1846,1,1,0,1
0.838,1869,1,1,0,1
0.84,1894,1,1,0,1
0.842,1909,1,1,0,1
0.844,1907,1,1,0,1
0.846,1892,1,1,0,1
0.848,1871,1,1,0,1
0.85,1861,1,1,0,1
0.852,1866,1,1,0,1
0.854,1883,1,1,0,1
0.856,1902,1,1,0,1
0.858,1916,1,1,0,1
0.86,1916,1,1,0,1
0.862,1903,1,1,0,1
0.864,1885,1,1,0,1
0.866,1873,1,1,0,1
0.868,1874,1,1,0,1
0.87,1891,1,1,0,1
0.872,1917,1,1,0,1
0.874,1942,1,1,0,1
0.876,1953,1,1,0,1
0.878,1946,1,1,0,1
0.88,1927,1,1,0,1
0.882,1907,1,1,0,1
0.884,1898,1,1,0,1
0.886,1907,1,1,0,1
0.888,1930,1,1,0,1
0.89,1953,1,1,0,1
0.892,1964,1,1,0,1
0.894,1958,1,1,0,1
0.896,1939,1,1,0,1
0.898,1914,1,1,0,1
0.9,1903,1,1,0,1
0.902,1910,1,1,0,1
0.904,1931,1,1,0,1
0.906,1959,1,1,0,1
0.908,1979,1,1,0,1
0.91,1987,1,1,0,1
0.912,1978,1,1,0,1
0.914,1961,1,1,0,1
0.916,1947,1,1,0,1
0.918,1946,1,1,0,1
0.92,1957,1,1,0,1
0.922,1977,1,1,0,1
0.924,1997,1,1,0,1
0.926,2003,1,1,0,1
0.928,1993,1,1,0,1
0.93,1971,1,1,0,1
0.9320000000000001,1949,1,1,0,1
0.9340000000000001,1941,1,1,0,1
0.9360000000000001,1951,1,1,0,1
0.9379999999999999,1972,1,1,0,1
0.9399999999999999,1995,1,1,0,1
0.9419999999999999,2009,1,1,0,1
0.944,2009,1,1,0,1
0.946,1995,1,1,0,1
0.948,1977,1,1,0,1
0.95,1963,1,1,0,1
0.952,1965,1,1,0,1
0.954,1983,1,1,0,1
0.956,2006,1,1,0,1
0.958,2018,1,1,0,1
0.96,2013,1,1,0,1
0.962,1994,1,1,0,1
0.964,1969,1,1,0,1
0.966,1948,1,1,0,1
0.968,1943,1,1,0,1
0.97,1955,1,1,0,1
0.972,1974,1,1,0,1
0.974,1995,1,1,0,1
0.976,2005,1,1,0,1
0.978,1998,1,1,0,1
0.98,1979,1,1,0,1
0.982,1959,1,1,0,1
0.984,1953,1,1,0,1
0.986,1959,1,1,0,1
0.988,1979,1,1,0,1
0.99,2002,1,1,0,1
0.992,2014,1,1,0,1
0.994,2013,1,1,0,1
0.996,2002,1,1,0,1
0.998,1986,1,1,0,1
1,1979,1,1,0,1
1.002,1991,1,1,0,1
1.004,2014,1,1,0,1
1.006,2042,1,1,0,1
1.008,2066,1,1,0,1
1.01,2074,1,1,0,1
1.012,2069,1,1,0,1
1.014,2058,1,1,0,1
1.016,2045,1,1,0,1
1.018,2047,1,1,0,1
1.02,2065,1,1,0,1
1.022,2087,1,1,0,1
1.024,2107,1,1,0,1
1.026,2111,1,1,0,1
1.028,2101,1,1,0,1
1.03,2077,1,1,0,1
1.032,2053,1,1,0,1
1.034,2035,1,1,0,1
1.036,2038,1,1,0,1
1.038,2058,1,1,0,1
1.04,2082,1,1,0,1
1.042,2100,1,1,0,1
1.044,2104,1,1,0,1
1.046,2093,1,1,0,1
1.048,2078,1,1,0,1
1.05,2068,1,1,0,1
1.052,2071,1,1,0,1
1.054,2091,1,1,0,1
1.056,2117,1,1,0,1
1.058,2139,1,1,0,1
1.06,2151,1,1,0,1
1.062,2150,1,1,0,1
1.064,2141,1,1,0,1
1.066,2138,1,1,0,1
1.068,2147,1,1,0,1
1.07,2166,1,1,0,1
1.072,2191,1,1,0,1
1.074,2211,1,1,0,1
1.076,2215,1,1,0,1
1.078,2198,1,1,0,1
1.08,2165,1,1,0,1
1.082,2126,1,1,0,1
1.084,2098,1,1,0,1
1.086,2088,1,1,0,1
1.088,2089,1,1,0,1
1.09,2086,1,1,0,1
1.092,2067,1,1,0,1
1.094,2025,1,1,0,1
1.096,1965,1,1,0,1
1.098,1901,1,1,0,1
1.1,1853,1,1,0,1
1.102,1823,1,1,0,1
1.104,1815,1,1,0,1
1.106,1818,1,1,0,1
1.108,1823,1,1,0,1
1.11,1822,1,1,0,1
1.112,1813,1,1,0,1
1.114,1799,1,1,0,1
1.116,1789,1,1,0,1
1.118,1795,1,1,0,1
1.12,1814,1,1,0,1
1.122,1842,1,1,0,1
1.124,1870,1,1,0,1
1.126,1885,1,1,0,1
1.128,1885,1,1,0,1
1.13,1871,1,1,0,1
1.132,1858,1,1,0,1
1.134,1855,1,1,0,1
1.136,1869,1,1,0,1
1.138,1895,1,1,0,1
1.14,1918,1,1,0,1
1.142,1933,1,1,0,1
1.144,1932,1,1,0,1
1.146,1917,1,1,0,1
1.148,1897,1,1,0,1
1.15,1884,1,1,0,1
1.152,1889,1,1,0,1
1.154,1909,1,1,0,1
1.156,1935,1,1,0,1
1.158,1954,1,1,0,1
1.16,1959,1,1,0,1
1.162,1949,1,1,0,1
1.164,1933,1,1,0,1
1.166,1923,1,1,0,1
1.168,1927,1,1,0,1
1.17,1947,1,1,0,1
1.172,1977,1,1,0,1
1.174,2009,1,1,0,1
1.176,2043,1,1,0,1
1.178,2087,1,1,0,1
1.18,2150,1,1,0,1
1.182,2250,1,1,0,1
1.184,2405,1,1,0,1
1.186,2622,1,1,0,1
1.188,2903,1,1,0,1
1.19,3241,1,1,0,1
1.192,3607,1,1,0,1
1.194,3972,1,1,0,1
1.196,4055,1,1,0,1
1.198,4061,1,1,0,1
1.2,4061,1,1,0,1
1.202,4062,1,1,0,1
1.204,4061,1,1,0,1
1.206,4058,1,1,0,1
1.208,3911,1,1,0,1
1.21,3611,1,1,0,1
1.212,3175,1,1,0,1
1.214,2627,1,1,0,1
1.216,1981,1,1,0,1
1.218,1301,1,1,0,1
1.22,651,1,1,0,1
1.222,101,1,1,0,1
1.224,4,1,1,0,1
1.226,0,1,1,0,1
1.228,0,1,1,0,1
1.23,0,1,1,0,1
1.232,0,1,1,0,1
1.234,0,1,1,0,1
1.236,0,1,1,0,1
1.238,0,1,1,0,1
1.24,0,1,1,0,1
1.242,0,1,1,0,1
1.244,0,1,1,0,1
1.246,0,1,1,0,1
1.248,61,1,1,0,1
1.25,196,1,1,0,1
1.252,393,1,1,0,1
1.254,631,1,1,0,1
1.256,895,1,1,0,1
1.258,1166,1,1,0,1
1.26,1425,1,1,0,1
1.262,1658,1,1,0,1
1.264,1858,1,1,0,1
1.266,2027,1,1,0,1
1.268,2181,1,1,0,1
1.27,2316,1,1,0,1
1.272,2427,1,1,0,1
1.274,2509,1,1,0,1
1.276,2555,1,1,0,1
1.278,2569,1,1,0,1
1.28,2555,1,1,0,1
1.282,2533,1,1,0,1
1.284,2518,1,1,0,1
1.286,2515,1,1,0,1
1.288,2521,1,1,0,1
1.29,2525,1,1,0,1
1.292,2518,1,1,0,1
1.294,2495,1,1,0,1
1.296,2461,1,1,0,1
1.298,2423,1,1,0,1
1.3,2398,1,1,0,1
1.302,2389,1,1,0,1
1.304,2398,1,1,0,1
1.306,2413,1,1,0,1
1.308,2421,1,1,0,1
1.31,2415,1,1,0,1
1.312,2398,1,1,0,1
1.314,2374,1,1,0,1
1.316,2353,1,1,0,1
1.318,2347,1,1,0,1
1.32,2357,1,1,0,1
1.322,2374,1,1,0,1
1.324,2389,1,1,0,1
1.326,2391,1,1,0,1
1.328,2377,1,1,0,1
1.33,2349,1,1,0,1
1.332,2319,1,1,0,1
1.334,2301,1,1,0,1
1.336,2302,1,1,0,1
1.338,2318,1,1,0,1
1.34,2339,1,1,0,1
1.342,2354,1,1,0,1
1.344,2353,1,1,0,1
1.346,2340,1,1,0,1
1.348,2323,1,1,0,1
1.35,2316,1,1,0,1
1.352,2325,1,1,0,1
1.354,2346,1,1,0,1
1.356,2371,1,1,0,1
1.358,2390,1,1,0,1
1.36,2393,1,1,0,1
1.362,2381,1,1,0,1
1.364,2356,1,1,0,1
1.366,2333,1,1,0,1
1.368,2326,1,1,0,1
1.37,2335,1,1,0,1
1.372,2355,1,1,0,1
1.374,2373,1,1,0,1
1.376,2377,1,1,0,1
1.378,2365,1,1,0,1
1.38,2345,1,1,0,1
1.382,2326,1,1,0,1
1.384,2318,1,1,0,1
1.386,2329,1,1,0,1
1.388,2353,1,1,0,1
1.39,2377,1,1,0,1
1.392,2393,1,1,0,1
1.394,2396,1,1,0,1
1.396,2386,1,1,0,1
1.398,2370,1,1,0,1
1.4,2362,1,1,0,1
1.402,2370,1,1,0,1
1.404,2391,1,1,0,1
1.406,2423,1,1,0,1
1.408,2451,1,1,0,1
1.41,2461,1,1,0,1
1.412,2454,1,1,0,1
1.414,2440,1,1,0,1
1.416,2429,1,1,0,1
1.418,2430,1,1,0,1
1.42,2447,1,1,0,1
1.422,2471,1,1,0,1
1.424,2493,1,1,0,1
1.426,2499,1,1,0,1
1.428,2489,1,1,0,1
1.43,2465,1,1,0,1
1.432,2441,1,1,0,1
1.434,2429,1,1,0,1
1.436,2438,1,1,0,1
1.438,2455,1,1,0,1
1.44,2473,1,1,0,1
1.442,2478,1,1,0,1
1.444,2469,1,1,0,1
1.446,2447,1,1,0,1
1.448,2423,1,1,0,1
1.45,2409,1,1,0,1
1.452,2410,1,1,0,1
1.454,2426,1,1,0,1
1.456,2447,1,1,0,1
1.458,2459,1,1,0,1
1.46,2455,1,1,0,1
1.462,2434,1,1,0,1
1.464,2399,1,1,0,1
1.466,2372,1,1,0,1
1.468,2358,1,1,0,1
1.47,2361,1,1,0,1
1.472,2372,1,1,0,1
1.474,2379,1,1,0,1
1.476,2374,1,1,0,1
1.478,2350,1,1,0,1
1.48,2314,1,1,0,1
1.482,2274,1,1,0,1
1.484,2245,1,1,0,1
1.486,2231,1,1,0,1
1.488,2231,1,1,0,1
1.49,2236,1,1,0,1
1.492,2233,1,1,0,1
1.494,2217,1,1,0,1
1.496,2187,1,1,0,1
1.498,2153,1,1,0,1
1.5,2125,1,1,0,1
1.502,2110,1,1,0,1
1.504,2106,1,1,0,1
1.506,2102,1,1,0,1
1.508,2090,1,1,0,1
1.51,2061,1,1,0,1
1.512,2014,1,1,0,1
1.514,1961,1,1,0,1
1.516,1910,1,1,0,1
1.518,1871,1,1,0,1
1.52,1846,1,1,0,1
1.522,1831,1,1,0,1
1.524,1817,1,1,0,1
1.526,1790,1,1,0,1
1.528,1749,1,1,0,1
1.53,1699,1,1,0,1
1.532,1651,1,1,0,1
1.534,1619,1,1,0,1
1.536,1608,1,1,0,1
1.538,1612,1,1,0,1
1.54,1618,1,1,0,1
1.542,1617,1,1,0,1
1.544,1599,1,1,0,1
1.546,1572,1,1,0,1
1.548,1541,1,1,0,1
1.55,1518,1,1,0,1
1.552,1514,1,1,0,1
1.554,1522,1,1,0,1
1.556,1538,1,1,0,1
1.558,1548,1,1,0,1
1.56,1549,1,1,0,1
1.562,1539,1,1,0,1
1.564,1522,1,1,0,1
1.566,1513,1,1,0,1
1.568,1522,1,1,0,1
1.57,1547,1,1,0,1
1.572,1577,1,1,0,1
1.574,1606,1,1,0,1
1.576,1622,1,1,0,1
1.578,1622,1,1,0,1
1.58,1609,1,1,0,1
1.582,1593,1,1,0,1
1.584,1590,1,1,0,1
1.586,1605,1,1,0,1
1.588,1630,1,1,0,1
1.59,1659,1,1,0,1
1.592,1679,1,1,0,1
1.594,1681,1,1,0,1
1.596,1668,1,1,0,1
1.598,1653,1,1,0,1
1.6,1650,1,1,0,1
1.602,1663,1,1,0,1
1.604,1689,1,1,0,1
1.606,1717,1,1,0,1
1.608,1741,1,1,0,1
1.61,1751,1,1,0,1
1.612,1747,1,1,0,1
1.614,1732,1,1,0,1
1.616,1722,1,1,0,1
1.618,1727,1,1,0,1
1.62,1748,1,1,0,1
1.622,1777,1,1,0,1
1.624,1802,1,1,0,1
1.626,1811,1,1,0,1
1.628,1805,1,1,0,1
1.63,1787,1,1,0,1
1.632,1769,1,1,0,1
1.634,1759,1,1,0,1
1.636,1766,1,1,0,1
1.638,1785,1,1,0,1
1.64,1807,1,1,0,1
1.642,1819,1,1,0,1
1.644,1813,1,1,0,1
1.646,1797,1,1,0,1
1.648,1775,1,1,0,1
1.65,1763,1,1,0,1
1.652,1766,1,1,0,1
1.654,1785,1,1,0,1
1.656,1813,1,1,0,1
1.658,1834,1,1,0,1
1.66,1841,1,1,0,1
1.662,1833,1,1,0,1
1.664,1818,1,1,0,1
1.666,1807,1,1,0,1
1.668,1811,1,1,0,1
1.67,1823,1,1,0,1
1.672,1845,1,1,0,1
1.674,1861,1,1,0,1
1.676,1865,1,1,0,1
1.678,1851,1,1,0,1
1.68,1829,1,1,0,1
1.682,1806,1,1,0,1
1.684,1795,1,1,0,1
1.686,1801,1,1,0,1
1.688,1821,1,1,0,1
1.69,1841,1,1,0,1
1.692,1851,1,1,0,1
1.694,1848,1,1,0,1
1.696,1831,1,1,0,1
1.698,1814,1,1,0,1
1.7,1805,1,1,0,1
1.702,1812,1,1,0,1
1.704,1830,1,1,0,1
1.706,1851,1,1,0,1
1.708,1869,1,1,0,1
1.71,1874,1,1,0,1
1.712,1863,1,1,0,1
1.714,1849,1,1,0,1
1.716,1839,1,1,0,1
1.718,1843,1,1,0,1
1.72,1860,1,1,0,1
1.722,1883,1,1,0,1
1.724,1905,1,1,0,1
1.726,1911,1,1,0,1
1.728,1901,1,1,0,1
1.73,1881,1,1,0,1
1.732,1862,1,1,0,1
1.734,1854,1,1,0,1
1.736,1865,1,1,0,1
1.738,1885,1,1,0,1
1.74,1906,1,1,0,1
1.742,1916,1,1,0,1
1.744,1910,1,1,0,1
1.746,1890,1,1,0,1
1.748,1866,1,1,0,1
1.75,1851,1,1,0,1
1.752,1855,1,1,0,1
1.754,1875,1,1,0,1
1.756,1899,1,1,0,1
1.758,1917,1,1,0,1
1.76,1923,1,1,0,1
1.762,1914,1,1,0,1
1.764,1898,1,1,0,1
1.766,1885,1,1,0,1
1.768,1886,1,1,0,1
1.77,1902,1,1,0,1
1.772,1925,1,1,0,1
1.774,1943,1,1,0,1
1.776,1949,1,1,0,1
1.778,1940,1,1,0,1
1.78,1922,1,1,0,1
1.782,1903,1,1,0,1
1.784,1898,1,1,0,1
1.786,1910,1,1,0,1
1.788,1937,1,1,0,1
1.79,1961,1,1,0,1
1.792,1973,1,1,0,1
1.794,1970,1,1,0,1
1.796,1950,1,1,0,1
1.798,1927,1,1,0,1
1.8,1910,1,1,0,1
1.802,1911,1,1,0,1
1.804,1929,1,1,0,1
1.806,1949,1,1,0,1
1.808,1964,1,1,0,1
1.81,1965,1,1,0,1
1.812,1949,1,1,0,1
1.814,1928,1,1,0,1
1.816,1911,1,1,0,1
1.818,1910,1,1,0,1
1.82,1926,1,1,0,1
1.822,1948,1,1,0,1
1.824,1967,1,1,0,1
1.826,1972,1,1,0,1
1.828,1958,1,1,0,1
1.83,1932,1,1,0,1
1.832,1907,1,1,0,1
1.834,1899,1,1,0,1
1.836,1909,1,1,0,1
1.838,1931,1,1,0,1
1.84,1955,1,1,0,1
1.842,1971,1,1,0,1
1.844,1974,1,1,0,1
1.846,1963,1,1,0,1
1.848,1945,1,1,0,1
1.85,1935,1,1,0,1
1.852,1940,1,1,0,1
1.854,1958,1,1,0,1
1.856,1978,1,1,0,1
1.858,1992,1,1,0,1
1.86,1993,1,1,0,1
1.862,1979,1,1,0,1
1.864,1957,1,1,0,1
1.866,1941,1,1,0,1
1.868,1939,1,1,0,1
1.87,1955,1,1,0,1
1.872,1979,1,1,0,1
1.874,2001,1,1,0,1
1.876,2006,1,1,0,1
1.878,1997,1,1,0,1
1.88,1975,1,1,0,1
1.882,1954,1,1,0,1
1.884,1942,1,1,0,1
1.886,1945,1,1,0,1
1.888,1958,1,1,0,1
1.89,1974,1,1,0,1
1.892,1982,1,1,0,1
1.894,1977,1,1,0,1
1.896,1957,1,1,0,1
1.898,1934,1,1,0,1
1.9,1923,1,1,0,1
1.902,1930,1,1,0,1
1.904,1953,1,1,0,1
1.906,1977,1,1,0,1
1.908,1994,1,1,0,1
1.91,1997,1,1,0,1
1.912,1983,1,1,0,1
1.914,1966,1,1,0,1
1.916,1951,1,1,0,1
1.918,1951,1,1,0,1
1.92,1967,1,1,0,1
1.922,1995,1,1,0,1
1.924,2025,1,1,0,1
1.926,2044,1,1,0,1
1.928,2045,1,1,0,1
1.93,2035,1,1,0,1
1.932,2026,1,1,0,1
1.934,2030,1,1,0,1
1.936,2053,1,1,0,1
1.938,2083,1,1,0,1
1.94,2110,1,1,0,1
1.942,2127,1,1,0,1
1.944,2125,1,1,0,1
1.946,2107,1,1,0,1
1.948,2083,1,1,0,1
1.95,2067,1,1,0,1
1.952,2070,1,1,0,1
1.954,2088,1,1,0,1
1.956,2111,1,1,0,1
1.958,2129,1,1,0,1
1.96,2130,1,1,0,1
1.962,2115,1,1,0,1
1.964,2092,1,1,0,1
1.966,2077,1,1,0,1
1.968,2077,1,1,0,1
1.97,2097,1,1,0,1
1.972,2129,1,1,0,1
1.974,2162,1,1,0,1
1.976,2186,1,1,0,1
1.978,2195,1,1,0,1
1.98,2191,1,1,0,1
1.982,2187,1,1,0,1
1.984,2189,1,1,0,1
1.986,2199,1,1,0,1
1.988,2216,1,1,0,1
1.99,2229,1,1,0,1
1.992,2229,1,1,0,1
1.994,2213,1,1,0,1
1.996,2178,1,1,0,1
1.998,2134,1,1,0,1
2,2100,1,1,0,1
2.002,2083,1,1,0,1
2.004,2082,1,1,0,1
2.006,2089,1,1,0,1
2.008,2086,1,1,0,1
2.01,2063,1,1,0,1
2.012,2022,1,1,0,1
2.014,1970,1,1,0,1
2.016,1919,1,1,0,1
2.018,1882,1,1,0,1
2.02,1860,1,1,0,1
2.022,1850,1,1,0,1
2.024,1843,1,1,0,1
2.026,1831,1,1,0,1
2.028,1809,1,1,0,1
2.03,1781,1,1,0,1
2.032,1761,1,1,0,1
2.034,1757,1,1,0,1
2.036,1773,1,1,0,1
2.038,1799,1,1,0,1
2.04,1826,1,1,0,1
2.042,1844,1,1,0,1
2.044,1846,1,1,0,1
2.046,1836,1,1,0,1
2.048,1821,1,1,0,1
2.05,1813,1,1,0,1
2.052,1822,1,1,0,1
2.054,1843,1,1,0,1
2.056,1868,1,1,0,1
2.058,1890,1,1,0,1
2.06,1899,1,1,0,1
2.062,1893,1,1,0,1
2.064,1878,1,1,0,1
2.066,1867,1,1,0,1
2.068,1871,1,1,0,1
2.07,1890,1,1,0,1
2.072,1915,1,1,0,1
2.074,1941,1,1,0,1
2.076,1954,1,1,0,1
2.078,1953,1,1,0,1
2.08,1939,1,1,0,1
2.082,1922,1,1,0,1
2.084,1910,1,1,0,1
2.086,1913,1,1,0,1
2.088,1927,1,1,0,1
2.09,1947,1,1,0,1
2.092,1975,1,1,0,1
2.094,2017,1,1,0,1
2.096,2084,1,1,0,1
2.098,2190,1,1,0,1
2.1,2355,1,1,0,1
2.102,2590,1,1,0,1
2.104,2894,1,1,0,1
2.106,3258,1,1,0,1
2.108,3651,1,1,0,1
2.11,4003,1,1,0,1
2.112,4058,1,1,0,1
2.114,4061,1,1,0,1
2.116,4061,1,1,0,1
2.118,4062,1,1,0,1
2.12,4062,1,1,0,1
2.122,4037,1,1,0,1
2.124,3846,1,1,0,1
2.126,3501,1,1,0,1
2.128,3033,1,1,0,1
2.13,2457,1,1,0,1
2.132,1798,1,1,0,1
2.134,1118,1,1,0,1
2.136,482,1,1,0,1
2.138,45,1,1,0,1
2.14,1,1,1,0,1
2.142,0,1,1,0,1
2.144,0,1,1,0,1
2.146,0,1,1,0,1
2.148,0,1,1,0,1
2.15,0,1,1,0,1
2.152,0,1,1,0,1
2.154,0,1,1,0,1
2.156,0,1,1,0,1
2.158,0,1,1,0,1
2.16,0,1,1,0,1
2.162,16,1,1,0,1
2.164,110,1,1,0,1
2.166,270,1,1,0,1
2.168,490,1,1,0,1
2.17,759,1,1,0,1
2.172,1059,1,1,0,1
2.174,1361,1,1,0,1
2.176,1640,1,1,0,1
2.178,1876,1,1,0,1
2.18,2065,1,1,0,1
2.182,2212,1,1,0,1
2.184,2333,1,1,0,1
2.186,2437,1,1,0,1
2.188,2521,1,1,0,1
2.19,2582,1,1,0,1
2.192,2613,1,1,0,1
2.194,2615,1,1,0,1
2.196,2595,1,1,0,1
2.198,2557,1,1,0,1
2.2,2524,1,1,0,1
2.202,2502,1,1,0,1
2.204,2490,1,1,0,1
2.206,2483,1,1,0,1
2.208,2474,1,1,0,1
2.21,2454,1,1,0,1
2.212,2422,1,1,0,1
2.214,2388,1,1,0,1
2.216,2358,1,1,0,1
2.218,2345,1,1,0,1
2.22,2349,1,1,0,1
2.222,2369,1,1,0,1
2.224,2390,1,1,0,1
2.226,2399,1,1,0,1
2.228,2395,1,1,0,1
2.23,2378,1,1,0,1
2.232,2361,1,1,0,1
2.234,2353,1,1,0,1
2.236,2359,1,1,0,1
2.238,2377,1,1,0,1
2.24,2394,1,1,0,1
2.242,2399,1,1,0,1
2.244,2387,1,1,0,1
2.246,2362,1,1,0,1
2.248,2335,1,1,0,1
2.25,2322,1,1,0,1
2.252,2325,1,1,0,1
2.254,2341,1,1,0,1
2.256,2361,1,1,0,1
2.258,2375,1,1,0,1
2.26,2375,1,1,0,1
2.262,2362,1,1,0,1
2.264,2342,1,1,0,1
2.266,2326,1,1,0,1
2.268,2324,1,1,0,1
2.27,2335,1,1,0,1
2.272,2353,1,1,0,1
2.274,2366,1,1,0,1
2.276,2370,1,1,0,1
2.278,2361,1,1,0,1
2.28,2346,1,1,0,1
2.282,2334,1,1,0,1
2.284,2339,1,1,0,1
2.286,2357,1,1,0,1
2.288,2382,1,1,0,1
2.29,2405,1,1,0,1
2.292,2412,1,1,0,1
2.294,2402,1,1,0,1
2.296,2379,1,1,0,1
2.298,2354,1,1,0,1
2.3,2341,1,1,0,1
2.302,2346,1,1,0,1
2.304,2366,1,1,0,1
2.306,2394,1,1,0,1
2.308,2415,1,1,0,1
2.31,2421,1,1,0,1
2.312,2410,1,1,0,1
2.314,2390,1,1,0,1
2.316,2375,1,1,0,1
2.318,2373,1,1,0,1
2.32,2388,1,1,0,1
2.322,2410,1,1,0,1
2.324,2430,1,1,0,1
2.326,2442,1,1,0,1
2.328,2435,1,1,0,1
2.33,2417,1,1,0,1
2.332,2403,1,1,0,1
2.334,2402,1,1,0,1
2.336,2418,1,1,0,1
2.338,2445,1,1,0,1
2.34,2473,1,1,0,1
2.342,2489,1,1,0,1
2.344,2487,1,1,0,1
2.346,2470,1,1,0,1
2.348,2447,1,1,0,1
2.35,2436,1,1,0,1
2.352,2441,1,1,0,1
2.354,2458,1,1,0,1
2.356,2481,1,1,0,1
2.358,2493,1,1,0,1
2.36,2492,1,1,0,1
2.362,2473,1,1,0,1
2.364,2442,1,1,0,1
2.366,2415,1,1,0,1
2.368,2403,1,1,0,1
2.37,2402,1,1,0,1
2.372,2409,1,1,0,1
2.374,2413,1,1,0,1
2.376,2407,1,1,0,1
2.378,2387,1,1,0,1
2.38,2355,1,1,0,1
2.382,2327,1,1,0,1
2.384,2317,1,1,0,1
2.386,2324,1,1,0,1
2.388,2341,1,1,0,1
2.39,2357,1,1,0,1
2.392,2358,1,1,0,1
2.394,2338,1,1,0,1
2.396,2302,1,1,0,1
2.398,2262,1,1,0,1
2.4,2230,1,1,0,1
2.402,2214,1,1,0,1
2.404,2212,1,1,0,1
2.406,2213,1,1,0,1
2.408,2206,1,1,0,1
2.41,2189,1,1,0,1
2.412,2155,1,1,0,1
2.414,2116,1,1,0,1
2.416,2079,1,1,0,1
2.418,2058,1,1,0,1
2.42,2046,1,1,0,1
2.422,2043,1,1,0,1
2.424,2037,1,1,0,1
2.426,2021,1,1,0,1
2.428,1989,1,1,0,1
2.43,1946,1,1,0,1
2.432,1902,1,1,0,1
2.434,1868,1,1,0,1
2.436,1849,1,1,0,1
2.438,1841,1,1,0,1
2.44,1831,1,1,0,1
2.442,1812,1,1,0,1
2.444,1774,1,1,0,1
2.446,1725,1,1,0,1
2.448,1678,1,1,0,1
2.45,1643,1,1,0,1
2.452,1627,1,1,0,1
2.454,1625,1,1,0,1
2.456,1628,1,1,0,1
2.458,1626,1,1,0,1
2.46,1612,1,1,0,1
2.462,1586,1,1,0,1
2.464,1558,1,1,0,1
2.466,1540,1,1,0,1
2.468,1540,1,1,0,1
2.47,1557,1,1,0,1
2.472,1582,1,1,0,1
2.474,1605,1,1,0,1
2.476,1614,1,1,0,1
2.478,1610,1,1,0,1
2.48,1593,1,1,0,1
2.482,1580,1,1,0,1
2.484,1577,1,1,0,1
2.486,1591,1,1,0,1
2.488,1619,1,1,0,1
2.49,1646,1,1,0,1
2.492,1662,1,1,0,1
2.494,1663,1,1,0,1
2.496,1650,1,1,0,1
2.498,1631,1,1,0,1
2.5,1620,1,1,0,1
2.502,1626,1,1,0,1
2.504,1647,1,1,0,1
2.506,1673,1,1,0,1
2.508,1690,1,1,0,1
2.51,1693,1,1,0,1
2.512,1682,1,1,0,1
2.514,1663,1,1,0,1
2.516,1651,1,1,0,1
2.518,1652,1,1,0,1
2.52,1667,1,1,0,1
2.522,1692,1,1,0,1
2.524,1717,1,1,0,1
2.526,1733,1,1,0,1
2.528,1734,1,1,0,1
2.53,1725,1,1,0,1
2.532,1717,1,1,0,1
2.534,1719,1,1,0,1
2.536,1738,1,1,0,1
2.538,1767,1,1,0,1
2.54,1797,1,1,0,1
2.542,1815,1,1,0,1
2.544,1817,1,1,0,1
2.546,1807,1,1,0,1
2.548,1791,1,1,0,1
2.55,1783,1,1,0,1
2.552,1788,1,1,0,1
2.554,1806,1,1,0,1
2.556,1828,1,1,0,1
2.558,1844,1,1,0,1
2.56,1844,1,1,0,1
2.562,1827,1,1,0,1
2.564,1803,1,1,0,1
2.566,1782,1,1,0,1
2.568,1779,1,1,0,1
2.57,1794,1,1,0,1
2.572,1815,1,1,0,1
2.574,1835,1,1,0,1
2.576,1843,1,1,0,1
2.578,1835,1,1,0,1
2.58,1819,1,1,0,1
2.582,1805,1,1,0,1
2.584,1801,1,1,0,1
2.586,1813,1,1,0,1
2.588,1835,1,1,0,1
2.59,1855,1,1,0,1
2.592,1865,1,1,0,1
2.594,1859,1,1,0,1
2.596,1839,1,1,0,1
2.598,1819,1,1,0,1
2.6,1807,1,1,0,1
2.602,1812,1,1,0,1
2.604,1831,1,1,0,1
2.606,1859,1,1,0,1
2.608,1877,1,1,0,1
2.61,1879,1,1,0,1
2.612,1867,1,1,0,1
2.614,1847,1,1,0,1
2.616,1833,1,1,0,1
2.618,1831,1,1,0,1
2.62,1844,1,1,0,1
2.622,1866,1,1,0,1
2.624,1885,1,1,0,1
2.626,1891,1,1,0,1
2.628,1880,1,1,0,1
2.63,1859,1,1,0,1
2.632,1842,1,1,0,1
2.634,1838,1,1,0,1
2.636,1849,1,1,0,1
2.638,1869,1,1,0,1
2.64,1887,1,1,0,1
2.642,1896,1,1,0,1
2.644,1889,1,1,0,1
2.646,1869,1,1,0,1
2.648,1846,1,1,0,1
2.65,1831,1,1,0,1
2.652,1834,1,1,0,1
2.654,1850,1,1,0,1
2.656,1873,1,1,0,1
2.658,1889,1,1,0,1
2.66,1892,1,1,0,1
2.662,1879,1,1,0,1
2.664,1862,1,1,0,1
2.666,1849,1,1,0,1
2.668,1850,1,1,0,1
2.67,1867,1,1,0,1
2.672,1893,1,1,0,1
2.674,1913,1,1,0,1
2.676,1917,1,1,0,1
2.678,1908,1,1,0,1
2.68,1890,1,1,0,1
2.682,1873,1,1,0,1
2.684,1868,1,1,0,1
2.686,1879,1,1,0,1
2.688,1899,1,1,0,1
2.69,1918,1,1,0,1
2.692,1929,1,1,0,1
2.694,1925,1,1,0,1
2.696,1907,1,1,0,1
2.698,1887,1,1,0,1
2.7,1879,1,1,0,1
2.702,1886,1,1,0,1
2.704,1907,1,1,0,1
2.706,1934,1,1,0,1
2.708,1949,1,1,0,1
2.71,1947,1,1,0,1
2.712,1930,1,1,0,1
2.714,1905,1,1,0,1
2.716,1887,1,1,0,1
2.718,1883,1,1,0,1
2.72,1894,1,1,0,1
2.722,1916,1,1,0,1
2.724,1938,1,1,0,1
2.726,1946,1,1,0,1
2.728,1938,1,1,0,1
2.73,1917,1,1,0,1
2.732,1899,1,1,0,1
2.734,1897,1,1,0,1
2.736,1913,1,1,0,1
2.738,1939,1,1,0,1
2.74,1965,1,1,0,1
2.742,1979,1,1,0,1
2.744,1977,1,1,0,1
2.746,1959,1,1,0,1
2.748,1939,1,1,0,1
2.75,1929,1,1,0,1
2.752,1933,1,1,0,1
2.754,1951,1,1,0,1
2.756,1970,1,1,0,1
2.758,1981,1,1,0,1
2.76,1979,1,1,0,1
2.762,1962,1,1,0,1
2.764,1938,1,1,0,1
2.766,1918,1,1,0,1
2.768,1915,1,1,0,1
2.77,1932,1,1,0,1
2.772,1957,1,1,0,1
2.774,1979,1,1,0,1
2.776,1990,1,1,0,1
2.778,1982,1,1,0,1
2.78,1965,1,1,0,1
2.782,1949,1,1,0,1
2.784,1945,1,1,0,1
2.786,1956,1,1,0,1
2.788,1975,1,1,0,1
2.79,1996,1,1,0,1
2.792,2006,1,1,0,1
2.794,2001,1,1,0,1
2.796,1979,1,1,0,1
2.798,1957,1,1,0,1
2.8,1945,1,1,0,1
2.802,1951,1,1,0,1
2.804,1973,1,1,0,1
2.806,2001,1,1,0,1
2.808,2021,1,1,0,1
2.81,2025,1,1,0,1
2.812,2011,1,1,0,1
2.814,1989,1,1,0,1
2.816,1969,1,1,0,1
2.818,1961,1,1,0,1
2.82,1967,1,1,0,1
2.822,1982,1,1,0,1
2.824,1999,1,1,0,1
2.826,2005,1,1,0,1
2.828,1995,1,1,0,1
2.83,1978,1,1,0,1
2.832,1967,1,1,0,1
2.834,1970,1,1,0,1
2.836,1993,1,1,0,1
2.838,2025,1,1,0,1
2.84,2059,1,1,0,1
2.842,2077,1,1,0,1
2.844,2078,1,1,0,1
2.846,2065,1,1,0,1
2.848,2047,1,1,0,1
2.85,2039,1,1,0,1
2.852,2046,1,1,0,1
2.854,2070,1,1,0,1
2.856,2097,1,1,0,1
2.858,2116,1,1,0,1
2.86,2122,1,1,0,1
2.862,2113,1,1,0,1
2.864,2095,1,1,0,1
2.866,2081,1,1,0,1
2.868,2077,1,1,0,1
2.87,2089,1,1,0,1
2.872,2108,1,1,0,1
2.874,2130,1,1,0,1
2.876,2141,1,1,0,1
2.878,2141,1,1,0,1
2.88,2130,1,1,0,1
2.882,2116,1,1,0,1
2.884,2114,1,1,0,1
2.886,2127,1,1,0,1
2.888,2149,1,1,0,1
2.89,2170,1,1,0,1
2.892,2183,1,1,0,1
2.894,2185,1,1,0,1
2.896,2174,1,1,0,1
2.898,2165,1,1,0,1
2.9,2165,1,1,0,1
2.902,2181,1,1,0,1
2.904,2203,1,1,0,1
2.906,2226,1,1,0,1
2.908,2234,1,1,0,1
2.91,2226,1,1,0,1
2.912,2201,1,1,0,1
2.914,2165,1,1,0,1
2.916,2131,1,1,0,1
2.918,2106,1,1,0,1
2.92,2095,1,1,0,1
2.922,2095,1,1,0,1
2.924,2094,1,1,0,1
2.926,2082,1,1,0,1
2.928,2047,1,1,0,1
2.93,2005,1,1,0,1
2.932,1957,1,1,0,1
2.934,1915,1,1,0,1
2.936,1891,1,1,0,1
2.938,1878,1,1,0,1
2.94,1869,1,1,0,1
2.942,1853,1,1,0,1
2.944,1830,1,1,0,1
2.946,1800,1,1,0,1
2.948,1773,1,1,0,1
2.95,1763,1,1,0,1
2.952,1771,1,1,0,1
2.954,1795,1,1,0,1
2.956,1823,1,1,0,1
2.958,1846,1,1,0,1
2.96,1851,1,1,0,1
2.962,1843,1,1,0,1
2.964,1830,1,1,0,1
2.966,1826,1,1,0,1
2.968,1837,1,1,0,1
2.97,1861,1,1,0,1
2.972,1892,1,1,0,1
2.974,1918,1,1,0,1
2.976,1929,1,1,0,1
2.978,1919,1,1,0,1
2.98,1901,1,1,0,1
2.982,1881,1,1,0,1
2.984,1871,1,1,0,1
2.986,1878,1,1,0,1
2.988,1895,1,1,0,1
2.99,1914,1,1,0,1
2.992,1926,1,1,0,1
2.994,1923,1,1,0,1
2.996,1906,1,1,0,1
2.998,1887,1,1,0,1
3,1877,1,1,0,1
3.002,1879,1,1,0,1
3.004,1890,1,1,0,1
3.006,1905,1,1,0,1
3.008,1914,1,1,0,1
3.01,1917,1,1,0,1
3.012,1923,1,1,0,1
3.014,1953,1,1,0,1
3.016,2027,1,1,0,1
3.018,2163,1,1,0,1
3.02,2365,1,1,0,1
3.022,2630,1,1,0,1
3.024,2951,1,1,0,1
3.026,3313,1,1,0,1
3.028,3690,1,1,0,1
3.03,4015,1,1,0,1
3.032,4059,1,1,0,1
3.034,4061,1,1,0,1
3.036,4061,1,1,0,1
3.038,4061,1,1,0,1
3.04,4061,1,1,0,1
3.042,4005,1,1,0,1
3.044,3761,1,1,0,1
3.046,3374,1,1,0,1
3.048,2876,1,1,0,1
3.05,2297,1,1,0,1
3.052,1659,1,1,0,1
3.054,1016,1,1,0,1
3.056,417,1,1,0,1
3.058,33,1,1,0,1
3.06,1,1,1,0,1
3.062,0,1,1,0,1
3.064,0,1,1,0,1
3.066,0,1,1,0,1
3.068,0,1,1,0,1
3.07,0,1,1,0,1
3.072,0,1,1,0,1
3.074,0,1,1,0,1
3.076,0,1,1,0,1
3.078,0,1,1,0,1
3.08,0,1,1,0,1
3.082,38,1,1,0,1
3.084,169,1,1,0,1
3.086,372,1,1,0,1
3.088,627,1,1,0,1
3.09,913,1,1,0,1
3.092,1203,1,1,0,1
3.094,1477,1,1,0,1
3.096,1719,1,1,0,1
3.098,1929,1,1,0,1
3.1,2109,1,1,0,1
3.102,2266,1,1,0,1
3.104,2394,1,1,0,1
3.106,2491,1,1,0,1
3.108,2551,1,1,0,1
3.11,2575,1,1,0,1
3.112,2566,1,1,0,1
3.114,2537,1,1,0,1
3.116,2509,1,1,0,1
3.118,2489,1,1,0,1
3.12,2478,1,1,0,1
3.122,2476,1,1,0,1
3.124,2473,1,1,0,1
3.126,2457,1,1,0,1
3.128,2428,1,1,0,1
3.13,2394,1,1,0,1
3.132,2364,1,1,0,1
3.134,2349,1,1,0,1
3.136,2351,1,1,0,1
3.138,2366,1,1,0,1
3.14,2385,1,1,0,1
3.142,2395,1,1,0,1
3.144,2390,1,1,0,1
3.146,2374,1,1,0,1
3.148,2354,1,1,0,1
3.15,2343,1,1,0,1
3.152,2345,1,1,0,1
3.154,2357,1,1,0,1
3.156,2373,1,1,0,1
3.158,2382,1,1,0,1
3.16,2375,1,1,0,1
3.162,2356,1,1,0,1
3.164,2332,1,1,0,1
3.166,2314,1,1,0,1
3.168,2309,1,1,0,1
3.17,2319,1,1,0,1
3.172,2339,1,1,0,1
3.174,2355,1,1,0,1
3.176,2358,1,1,0,1
3.178,2346,1,1,0,1
3.18,2323,1,1,0,1
3.182,2298,1,1,0,1
3.184,2291,1,1,0,1
3.186,2302,1,1,0,1
3.188,2329,1,1,0,1
3.19,2358,1,1,0,1
3.192,2379,1,1,0,1
3.194,2383,1,1,0,1
3.196,2373,1,1,0,1
3.198,2356,1,1,0,1
3.2,2349,1,1,0,1
3.202,2354,1,1,0,1
3.204,2371,1,1,0,1
3.206,2389,1,1,0,1
3.208,2398,1,1,0,1
3.21,2393,1,1,0,1
3.212,2373,1,1,0,1
3.214,2349,1,1,0,1
3.216,2331,1,1,0,1
3.218,2330,1,1,0,1
3.22,2345,1,1,0,1
3.222,2366,1,1,0,1
3.224,2387,1,1,0,1
3.226,2393,1,1,0,1
3.228,2383,1,1,0,1
3.23,2363,1,1,0,1
3.232,2350,1,1,0,1
3.234,2353,1,1,0,1
3.236,2371,1,1,0,1
3.238,2398,1,1,0,1
3.24,2427,1,1,0,1
3.242,2446,1,1,0,1
3.244,2450,1,1,0,1
3.246,2439,1,1,0,1
3.248,2425,1,1,0,1
3.25,2421,1,1,0,1
3.252,2431,1,1,0,1
3.254,2455,1,1,0,1
3.256,2482,1,1,0,1
3.258,2502,1,1,0,1
3.26,2503,1,1,0,1
3.262,2487,1,1,0,1
3.264,2465,1,1,0,1
3.266,2445,1,1,0,1
3.268,2437,1,1,0,1
3.27,2443,1,1,0,1
3.272,2458,1,1,0,1
3.274,2469,1,1,0,1
3.276,2470,1,1,0,1
3.278,2455,1,1,0,1
3.28,2429,1,1,0,1
3.282,2407,1,1,0,1
3.284,2395,1,1,0,1
3.286,2398,1,1,0,1
3.288,2414,1,1,0,1
3.29,2429,1,1,0,1
3.292,2435,1,1,0,1
3.294,2421,1,1,0,1
3.296,2395,1,1,0,1
3.298,2366,1,1,0,1
3.3,2349,1,1,0,1
3.302,2347,1,1,0,1
3.304,2358,1,1,0,1
3.306,2373,1,1,0,1
3.308,2378,1,1,0,1
3.31,2370,1,1,0,1
3.312,2346,1,1,0,1
3.314,2313,1,1,0,1
3.316,2279,1,1,0,1
3.318,2262,1,1,0,1
3.32,2259,1,1,0,1
3.322,2262,1,1,0,1
3.324,2263,1,1,0,1
3.326,2250,1,1,0,1
3.328,2221,1,1,0,1
3.33,2186,1,1,0,1
3.332,2147,1,1,0,1
3.334,2121,1,1,0,1
3.336,2109,1,1,0,1
3.338,2107,1,1,0,1
3.34,2106,1,1,0,1
3.342,2093,1,1,0,1
3.344,2060,1,1,0,1
3.346,2013,1,1,0,1
3.348,1966,1,1,0,1
3.35,1927,1,1,0,1
3.352,1900,1,1,0,1
3.354,1885,1,1,0,1
3.356,1878,1,1,0,1
3.358,1865,1,1,0,1
3.36,1837,1,1,0,1
3.362,1797,1,1,0,1
3.364,1749,1,1,0,1
3.366,1708,1,1,0,1
3.368,1685,1,1,0,1
3.37,1676,1,1,0,1
3.372,1674,1,1,0,1
3.374,1671,1,1,0,1
3.376,1657,1,1,0,1
3.378,1631,1,1,0,1
3.38,1597,1,1,0,1
3.382,1567,1,1,0,1
3.384,1550,1,1,0,1
3.386,1550,1,1,0,1
3.388,1563,1,1,0,1
3.39,1581,1,1,0,1
3.392,1590,1,1,0,1
3.394,1586,1,1,0,1
3.396,1571,1,1,0,1
3.398,1554,1,1,0,1
3.4,1547,1,1,0,1
3.402,1558,1,1,0,1
3.404,1580,1,1,0,1
3.406,1606,1,1,0,1
3.408,1622,1,1,0,1
3.41,1626,1,1,0,1
3.412,1619,1,1,0,1
3.414,1609,1,1,0,1
3.416,1605,1,1,0,1
3.418,1617,1,1,0,1
3.42,1641,1,1,0,1
3.422,1671,1,1,0,1
3.424,1698,1,1,0,1
3.426,1709,1,1,0,1
3.428,1705,1,1,0,1
3.43,1690,1,1,0,1
3.432,1676,1,1,0,1
3.434,1673,1,1,0,1
3.436,1685,1,1,0,1
3.438,1708,1,1,0,1
3.44,1731,1,1,0,1
3.442,1745,1,1,0,1
3.444,1746,1,1,0,1
3.446,1737,1,1,0,1
3.448,1725,1,1,0,1
3.45,1723,1,1,0,1
3.452,1737,1,1,0,1
3.454,1758,1,1,0,1
3.456,1783,1,1,0,1
3.458,1803,1,1,0,1
3.46,1804,1,1,0,1
3.462,1787,1,1,0,1
3.464,1764,1,1,0,1
3.466,1745,1,1,0,1
3.468,1742,1,1,0,1
3.47,1757,1,1,0,1
3.472,1782,1,1,0,1
3.474,1806,1,1,0,1
3.476,1815,1,1,0,1
3.478,1809,1,1,0,1
3.48,1791,1,1,0,1
3.482,1778,1,1,0,1
3.484,1778,1,1,0,1
3.486,1796,1,1,0,1
3.488,1825,1,1,0,1
3.49,1851,1,1,0,1
3.492,1867,1,1,0,1
3.494,1867,1,1,0,1
3.496,1851,1,1,0,1
3.498,1831,1,1,0,1
3.5,1818,1,1,0,1
3.502,1818,1,1,0,1
3.504,1830,1,1,0,1
3.506,1846,1,1,0,1
3.508,1854,1,1,0,1
3.51,1851,1,1,0,1
3.512,1834,1,1,0,1
3.514,1813,1,1,0,1
3.516,1799,1,1,0,1
3.518,1803,1,1,0,1
3.52,1822,1,1,0,1
3.522,1850,1,1,0,1
3.524,1873,1,1,0,1
3.526,1882,1,1,0,1
3.528,1874,1,1,0,1
3.53,1853,1,1,0,1
3.532,1834,1,1,0,1
3.534,1825,1,1,0,1
3.536,1834,1,1,0,1
3.538,1854,1,1,0,1
3.54,1877,1,1,0,1
3.542,1893,1,1,0,1
3.544,1894,1,1,0,1
3.546,1881,1,1,0,1
3.548,1862,1,1,0,1
3.55,1849,1,1,0,1
3.552,1851,1,1,0,1
3.554,1867,1,1,0,1
3.556,1884,1,1,0,1
3.558,1895,1,1,0,1
3.56,1893,1,1,0,1
3.562,1878,1,1,0,1
3.564,1858,1,1,0,1
3.566,1843,1,1,0,1
3.568,1845,1,1,0,1
3.57,1861,1,1,0,1
3.572,1883,1,1,0,1
3.574,1901,1,1,0,1
3.576,1907,1,1,0,1
3.578,1897,1,1,0,1
3.58,1878,1,1,0,1
3.582,1861,1,1,0,1
3.584,1855,1,1,0,1
3.586,1869,1,1,0,1
3.588,1887,1,1,0,1
3.59,1908,1,1,0,1
3.592,1917,1,1,0,1
3.594,1913,1,1,0,1
3.596,1897,1,1,0,1
3.598,1879,1,1,0,1
3.6,1873,1,1,0,1
3.602,1881,1,1,0,1
3.604,1899,1,1,0,1
3.606,1923,1,1,0,1
3.608,1937,1,1,0,1
3.61,1935,1,1,0,1
3.612,1915,1,1,0,1
3.614,1891,1,1,0,1
3.616,1873,1,1,0,1
3.618,1874,1,1,0,1
3.62,1891,1,1,0,1
3.622,1915,1,1,0,1
3.624,1937,1,1,0,1
3.626,1941,1,1,0,1
3.628,1930,1,1,0,1
3.63,1910,1,1,0,1
3.632,1895,1,1,0,1
3.634,1897,1,1,0,1
3.636,1917,1,1,0,1
3.638,1946,1,1,0,1
3.64,1971,1,1,0,1
3.642,1981,1,1,0,1
3.644,1975,1,1,0,1
3.646,1956,1,1,0,1
3.648,1933,1,1,0,1
3.65,1922,1,1,0,1
3.652,1927,1,1,0,1
3.654,1949,1,1,0,1
3.656,1975,1,1,0,1
3.658,1995,1,1,0,1
3.66,1998,1,1,0,1
3.662,1986,1,1,0,1
3.664,1966,1,1,0,1
3.666,1951,1,1,0,1
3.668,1949,1,1,0,1
3.67,1962,1,1,0,1
3.672,1978,1,1,0,1
3.674,1989,1,1,0,1
3.676,1988,1,1,0,1
3.678,1969,1,1,0,1
3.68,1942,1,1,0,1
3.682,1917,1,1,0,1
3.684,1906,1,1,0,1
3.686,1914,1,1,0,1
3.688,1937,1,1,0,1
3.69,1962,1,1,0,1
3.692,1975,1,1,0,1
3.694,1975,1,1,0,1
3.696,1962,1,1,0,1
3.698,1945,1,1,0,1
3.7,1937,1,1,0,1
3.702,1941,1,1,0,1
3.704,1957,1,1,0,1
3.706,1974,1,1,0,1
3.708,1983,1,1,0,1
3.71,1978,1,1,0,1
3.712,1961,1,1,0,1
3.714,1939,1,1,0,1
3.716,1925,1,1,0,1
3.718,1925,1,1,0,1
3.72,1941,1,1,0,1
3.722,1961,1,1,0,1
3.724,1974,1,1,0,1
3.726,1974,1,1,0,1
3.728,1959,1,1,0,1
3.73,1937,1,1,0,1
3.732,1917,1,1,0,1
3.734,1911,1,1,0,1
3.736,1924,1,1,0,1
3.738,1945,1,1,0,1
3.74,1967,1,1,0,1
3.742,1979,1,1,0,1
3.744,1971,1,1,0,1
3.746,1950,1,1,0,1
3.748,1931,1,1,0,1
3.75,1926,1,1,0,1
3.752,1939,1,1,0,1
3.754,1965,1,1,0,1
3.756,1994,1,1,0,1
3.758,2012,1,1,0,1
3.76,2015,1,1,0,1
3.762,2001,1,1,0,1
3.764,1980,1,1,0,1
3.766,1969,1,1,0,1
3.768,1975,1,1,0,1
3.77,1998,1,1,0,1
3.772,2027,1,1,0,1
3.774,2053,1,1,0,1
3.776,2062,1,1,0,1
3.778,2055,1,1,0,1
3.78,2037,1,1,0,1
3.782,2025,1,1,0,1
3.784,2027,1,1,0,1
3.786,2043,1,1,0,1
3.788,2068,1,1,0,1
3.79,2091,1,1,0,1
3.792,2105,1,1,0,1
3.794,2102,1,1,0,1
3.796,2089,1,1,0,1
3.798,2070,1,1,0,1
3.8,2061,1,1,0,1
3.802,2067,1,1,0,1
3.804,2084,1,1,0,1
3.806,2106,1,1,0,1
3.808,2125,1,1,0,1
3.81,2135,1,1,0,1
3.812,2130,1,1,0,1
3.814,2120,1,1,0,1
3.816,2115,1,1,0,1
3.818,2122,1,1,0,1
3.82,2142,1,1,0,1
3.822,2170,1,1,0,1
3.824,2194,1,1,0,1
3.826,2205,1,1,0,1
3.828,2204,1,1,0,1
3.83,2197,1,1,0,1
3.832,2191,1,1,0,1
3.834,2197,1,1,0,1
3.836,2215,1,1,0,1
3.838,2239,1,1,0,1
3.84,2258,1,1,0,1
3.842,2261,1,1,0,1
3.844,2243,1,1,0,1
3.846,2205,1,1,0,1
3.848,2164,1,1,0,1
3.85,2132,1,1,0,1
3.852,2116,1,1,0,1
3.854,2109,1,1,0,1
3.856,2105,1,1,0,1
3.858,2095,1,1,0,1
3.86,2075,1,1,0,1
3.862,2039,1,1,0,1
3.864,1993,1,1,0,1
3.866,1950,1,1,0,1
3.868,1923,1,1,0,1
3.87,1906,1,1,0,1
3.872,1897,1,1,0,1
3.874,1886,1,1,0,1
3.876,1868,1,1,0,1
3.878,1842,1,1,0,1
3.88,1813,1,1,0,1
3.882,1791,1,1,0,1
3.884,1789,1,1,0,1
3.886,1805,1,1,0,1
3.888,1830,1,1,0,1
3.89,1855,1,1,0,1
3.892,1867,1,1,0,1
3.894,1862,1,1,0,1
3.896,1842,1,1,0,1
3.898,1822,1,1,0,1
3.9,1814,1,1,0,1
3.902,1825,1,1,0,1
3.904,1847,1,1,0,1
3.906,1871,1,1,0,1
3.908,1887,1,1,0,1
3.91,1887,1,1,0,1
3.912,1876,1,1,0,1
3.914,1860,1,1,0,1
3.916,1850,1,1,0,1
3.918,1855,1,1,0,1
3.92,1878,1,1,0,1
3.922,1907,1,1,0,1
3.924,1931,1,1,0,1
3.926,1939,1,1,0,1
3.928,1929,1,1,0,1
3.93,1909,1,1,0,1
3.932,1894,1,1,0,1
3.934,1891,1,1,0,1
3.936,1899,1,1,0,1
3.938,1912,1,1,0,1
3.94,1922,1,1,0,1
3.942,1919,1,1,0,1
3.944,1909,1,1,0,1
3.946,1909,1,1,0,1
3.948,1937,1,1,0,1
3.95,2013,1,1,0,1
3.952,2154,1,1,0,1
3.954,2359,1,1,0,1
3.956,2627,1,1,0,1
3.958,2943,1,1,0,1
3.96,3305,1,1,0,1
3.962,3683,1,1,0,1
3.964,4013,1,1,0,1
3.966,4059,1,1,0,1
3.968,4061,1,1,0,1
3.97,4062,1,1,0,1
3.972,4062,1,1,0,1
3.974,4061,1,1,0,1
3.976,4015,1,1,0,1
3.978,3783,1,1,0,1
3.98,3395,1,1,0,1
3.982,2892,1,1,0,1
3.984,2302,1,1,0,1
3.986,1650,1,1,0,1
3.988,991,1,1,0,1
3.99,374,1,1,0,1
3.992,25,1,1,0,1
3.994,0,1,1,0,1
3.996,0,1,1,0,1
3.998,0,1,1,0,1
4,0,1,1,0,1
4.002,0,1,1,0,1
4.004,0,1,1,0,1
4.006,0,1,1,0,1
4.008,0,1,1,0,1
4.01,0,1,1,0,1
4.012,0,1,1,0,1
4.014,0,1,1,0,1
4.016,47,1,1,0,1
4.018,190,1,1,0,1
4.02,399,1,1,0,1
4.022,656,1,1,0,1
4.024,936,1,1,0,1
4.026,1219,1,1,0,1
4.028,1489,1,1,0,1
4.03,1727,1,1,0,1
4.032,1939,1,1,0,1
4.034,2126,1,1,0,1
4.036,2289,1,1,0,1
4.038,2423,1,1,0,1
4.04,2524,1,1,0,1
4.042,2583,1,1,0,1
4.044,2601,1,1,0,1
4.046,2585,1,1,0,1
4.048,2550,1,1,0,1
4.05,2518,1,1,0,1
4.052,2495,1,1,0,1
4.054,2485,1,1,0,1
4.056,2481,1,1,0,1
4.058,2471,1,1,0,1
4.06,2449,1,1,0,1
4.062,2415,1,1,0,1
4.064,2382,1,1,0,1
4.066,2357,1,1,0,1
4.068,2350,1,1,0,1
4.07,2359,1,1,0,1
4.072,2377,1,1,0,1
4.074,2390,1,1,0,1
4.076,2391,1,1,0,1
4.078,2378,1,1,0,1
4.08,2351,1,1,0,1
4.082,2333,1,1,0,1
4.084,2329,1,1,0,1
4.086,2341,1,1,0,1
4.088,2362,1,1,0,1
4.09,2382,1,1,0,1
4.092,2391,1,1,0,1
4.094,2382,1,1,0,1
4.096,2361,1,1,0,1
4.098,2340,1,1,0,1
4.1,2329,1,1,0,1
4.102,2333,1,1,0,1
4.104,2347,1,1,0,1
4.106,2365,1,1,0,1
4.108,2374,1,1,0,1
4.11,2366,1,1,0,1
4.112,2347,1,1,0,1
4.114,2323,1,1,0,1
4.116,2307,1,1,0,1
4.118,2303,1,1,0,1
4.12,2318,1,1,0,1
4.122,2335,1,1,0,1
4.124,2351,1,1,0,1
4.126,2355,1,1,0,1
4.128,2343,1,1,0,1
4.13,2324,1,1,0,1
4.132,2303,1,1,0,1
4.134,2298,1,1,0,1
4.136,2310,1,1,0,1
4.138,2326,1,1,0,1
4.14,2341,1,1,0,1
4.142,2346,1,1,0,1
4.144,2342,1,1,0,1
4.146,2327,1,1,0,1
4.148,2313,1,1,0,1
4.15,2309,1,1,0,1
4.152,2322,1,1,0,1
4.154,2346,1,1,0,1
4.156,2374,1,1,0,1
4.158,2394,1,1,0,1
4.16,2398,1,1,0,1
4.162,2388,1,1,0,1
4.164,2372,1,1,0,1
4.166,2362,1,1,0,1
4.168,2366,1,1,0,1
4.17,2385,1,1,0,1
4.172,2409,1,1,0,1
4.174,2423,1,1,0,1
4.176,2428,1,1,0,1
4.178,2419,1,1,0,1
4.18,2403,1,1,0,1
4.182,2387,1,1,0,1
4.184,2388,1,1,0,1
4.186,2404,1,1,0,1
4.188,2427,1,1,0,1
4.19,2451,1,1,0,1
4.192,2461,1,1,0,1
4.194,2457,1,1,0,1
4.196,2438,1,1,0,1
4.198,2418,1,1,0,1
4.2,2406,1,1,0,1
4.202,2410,1,1,0,1
4.204,2427,1,1,0,1
4.206,2451,1,1,0,1
4.208,2465,1,1,0,1
4.21,2461,1,1,0,1
4.212,2439,1,1,0,1
4.214,2407,1,1,0,1
4.216,2383,1,1,0,1
4.218,2377,1,1,0,1
4.22,2387,1,1,0,1
4.222,2406,1,1,0,1
4.224,2421,1,1,0,1
4.226,2421,1,1,0,1
4.228,2406,1,1,0,1
4.23,2379,1,1,0,1
4.232,2355,1,1,0,1
4.234,2345,1,1,0,1
4.236,2349,1,1,0,1
4.238,2361,1,1,0,1
4.24,2374,1,1,0,1
4.242,2375,1,1,0,1
4.244,2359,1,1,0,1
4.246,2327,1,1,0,1
4.248,2292,1,1,0,1
4.25,2267,1,1,0,1
4.252,2259,1,1,0,1
4.254,2262,1,1,0,1
4.256,2267,1,1,0,1
4.258,2261,1,1,0,1
4.26,2238,1,1,0,1
4.262,2204,1,1,0,1
4.264,2166,1,1,0,1
4.266,2134,1,1,0,1
4.268,2115,1,1,0,1
4.27,2107,1,1,0,1
4.272,2101,1,1,0,1
4.274,2092,1,1,0,1
4.276,2069,1,1,0,1
4.278,2028,1,1,0,1
4.28,1980,1,1,0,1
4.282,1935,1,1,0,1
4.284,1903,1,1,0,1
4.286,1887,1,1,0,1
4.288,1882,1,1,0,1
4.29,1875,1,1,0,1
4.292,1854,1,1,0,1
4.294,1816,1,1,0,1
4.296,1764,1,1,0,1
4.298,1713,1,1,0,1
4.3,1676,1,1,0,1
4.302,1656,1,1,0,1
4.304,1652,1,1,0,1
4.306,1657,1,1,0,1
4.308,1657,1,1,0,1
4.31,1644,1,1,0,1
4.312,1618,1,1,0,1
4.314,1587,1,1,0,1
4.316,1565,1,1,0,1
4.318,1561,1,1,0,1
4.32,1574,1,1,0,1
4.322,1594,1,1,0,1
4.324,1613,1,1,0,1
4.326,1621,1,1,0,1
4.328,1611,1,1,0,1
4.33,1593,1,1,0,1
4.332,1578,1,1,0,1
4.334,1578,1,1,0,1
4.336,1590,1,1,0,1
4.338,1612,1,1,0,1
4.34,1634,1,1,0,1
4.342,1643,1,1,0,1
4.344,1639,1,1,0,1
4.346,1625,1,1,0,1
4.348,1607,1,1,0,1
4.35,1598,1,1,0,1
4.352,1606,1,1,0,1
4.354,1627,1,1,0,1
4.356,1653,1,1,0,1
4.358,1671,1,1,0,1
4.36,1673,1,1,0,1
4.362,1659,1,1,0,1
4.364,1642,1,1,0,1
4.366,1633,1,1,0,1
4.368,1641,1,1,0,1
4.37,1665,1,1,0,1
4.372,1697,1,1,0,1
4.374,1723,1,1,0,1
4.376,1737,1,1,0,1
4.378,1735,1,1,0,1
4.38,1723,1,1,0,1
4.382,1714,1,1,0,1
4.384,1718,1,1,0,1
4.386,1735,1,1,0,1
4.388,1758,1,1,0,1
4.39,1779,1,1,0,1
4.392,1787,1,1,0,1
4.394,1779,1,1,0,1
4.396,1757,1,1,0,1
4.398,1735,1,1,0,1
4.4,1723,1,1,0,1
4.402,1731,1,1,0,1
4.404,1751,1,1,0,1
4.406,1778,1,1,0,1
4.408,1797,1,1,0,1
4.41,1802,1,1,0,1
4.412,1790,1,1,0,1
4.414,1773,1,1,0,1
4.416,1765,1,1,0,1
4.418,1774,1,1,0,1
4.42,1797,1,1,0,1
4.422,1826,1,1,0,1
4.424,1847,1,1,0,1
4.426,1852,1,1,0,1
4.428,1839,1,1,0,1
4.43,1817,1,1,0,1
4.432,1797,1,1,0,1
4.434,1789,1,1,0,1
4.436,1801,1,1,0,1
4.438,1821,1,1,0,1
4.44,1845,1,1,0,1
4.442,1859,1,1,0,1
4.444,1858,1,1,0,1
4.446,1842,1,1,0,1
4.448,1823,1,1,0,1
4.45,1819,1,1,0,1
4.452,1830,1,1,0,1
4.454,1852,1,1,0,1
4.456,1877,1,1,0,1
4.458,1891,1,1,0,1
4.46,1890,1,1,0,1
4.462,1875,1,1,0,1
4.464,1852,1,1,0,1
4.466,1837,1,1,0,1
4.468,1837,1,1,0,1
4.47,1850,1,1,0,1
4.472,1870,1,1,0,1
4.474,1886,1,1,0,1
4.476,1891,1,1,0,1
4.478,1879,1,1,0,1
4.48,1861,1,1,0,1
4.482,1845,1,1,0,1
4.484,1842,1,1,0,1
4.486,1854,1,1,0,1
4.488,1875,1,1,0,1
4.49,1892,1,1,0,1
4.492,1897,1,1,0,1
4.494,1887,1,1,0,1
4.496,1871,1,1,0,1
4.498,1853,1,1,0,1
4.5,1846,1,1,0,1
4.502,1858,1,1,0,1
4.504,1883,1,1,0,1
4.506,1911,1,1,0,1
4.508,1927,1,1,0,1
4.51,1925,1,1,0,1
4.512,1907,1,1,0,1
4.514,1884,1,1,0,1
4.516,1868,1,1,0,1
4.518,1867,1,1,0,1
4.52,1879,1,1,0,1
4.522,1895,1,1,0,1
4.524,1906,1,1,0,1
4.526,1902,1,1,0,1
4.528,1884,1,1,0,1
4.53,1862,1,1,0,1
4.532,1845,1,1,0,1
4.534,1843,1,1,0,1
4.536,1859,1,1,0,1
4.538,1883,1,1,0,1
4.54,1908,1,1,0,1
4.542,1919,1,1,0,1
4.544,1914,1,1,0,1
4.546,1896,1,1,0,1
4.548,1878,1,1,0,1
4.55,1869,1,1,0,1
4.552,1875,1,1,0,1
4.554,1893,1,1,0,1
4.556,1911,1,1,0,1
4.558,1925,1,1,0,1
4.56,1923,1,1,0,1
4.562,1909,1,1,0,1
4.564,1893,1,1,0,1
4.566,1885,1,1,0,1
4.568,1891,1,1,0,1
4.57,1910,1,1,0,1
4.572,1934,1,1,0,1
4.574,1953,1,1,0,1
4.576,1957,1,1,0,1
4.578,1943,1,1,0,1
4.58,1922,1,1,0,1
4.582,1903,1,1,0,1
4.584,1902,1,1,0,1
4.586,1917,1,1,0,1
4.588,1943,1,1,0,1
4.59,1967,1,1,0,1
4.592,1978,1,1,0,1
4.594,1973,1,1,0,1
4.596,1957,1,1,0,1
4.598,1941,1,1,0,1
4.6,1935,1,1,0,1
4.602,1947,1,1,0,1
4.604,1969,1,1,0,1
4.606,1994,1,1,0,1
4.608,2010,1,1,0,1
4.61,2009,1,1,0,1
4.612,1991,1,1,0,1
4.614,1967,1,1,0,1
4.616,1951,1,1,0,1
4.618,1953,1,1,0,1
4.62,1965,1,1,0,1
4.622,1980,1,1,0,1
4.624,1991,1,1,0,1
4.626,1989,1,1,0,1
4.628,1972,1,1,0,1
4.63,1948,1,1,0,1
4.632,1930,1,1,0,1
4.634,1926,1,1,0,1
4.636,1941,1,1,0,1
4.638,1963,1,1,0,1
4.64,1982,1,1,0,1
4.642,1993,1,1,0,1
4.644,1989,1,1,0,1
4.646,1973,1,1,0,1
4.648,1959,1,1,0,1
4.65,1957,1,1,0,1
4.652,1970,1,1,0,1
4.654,1995,1,1,0,1
4.656,2019,1,1,0,1
4.658,2034,1,1,0,1
4.66,2033,1,1,0,1
4.662,2017,1,1,0,1
4.664,1995,1,1,0,1
4.666,1982,1,1,0,1
4.668,1982,1,1,0,1
4.67,1995,1,1,0,1
4.672,2012,1,1,0,1
4.674,2023,1,1,0,1
4.676,2022,1,1,0,1
4.678,2006,1,1,0,1
4.68,1983,1,1,0,1
4.682,1965,1,1,0,1
4.684,1961,1,1,0,1
4.686,1974,1,1,0,1
4.688,1998,1,1,0,1
4.69,2019,1,1,0,1
4.692,2027,1,1,0,1
4.694,2019,1,1,0,1
4.696,1997,1,1,0,1
4.698,1973,1,1,0,1
4.7,1959,1,1,0,1
4.702,1961,1,1,0,1
4.704,1979,1,1,0,1
4.706,2006,1,1,0,1
4.708,2025,1,1,0,1
4.71,2029,1,1,0,1
4.712,2022,1,1,0,1
4.714,2009,1,1,0,1
4.716,2004,1,1,0,1
4.718,2011,1,1,0,1
4.72,2034,1,1,0,1
4.722,2063,1,1,0,1
4.724,2087,1,1,0,1
4.726,2099,1,1,0,1
4.728,2093,1,1,0,1
4.73,2077,1,1,0,1
4.732,2066,1,1,0,1
4.734,2069,1,1,0,1
4.736,2085,1,1,0,1
4.738,2108,1,1,0,1
4.74,2129,1,1,0,1
4.742,2137,1,1,0,1
4.744,2132,1,1,0,1
4.746,2117,1,1,0,1
4.748,2103,1,1,0,1
4.75,2105,1,1,0,1
4.752,2125,1,1,0,1
4.754,2155,1,1,0,1
4.756,2188,1,1,0,1
4.758,2210,1,1,0,1
4.76,2213,1,1,0,1
4.762,2201,1,1,0,1
4.764,2183,1,1,0,1
4.766,2179,1,1,0,1
4.768,2193,1,1,0,1
4.77,2222,1,1,0,1
4.772,2254,1,1,0,1
4.774,2278,1,1,0,1
4.776,2282,1,1,0,1
4.778,2263,1,1,0,1
4.78,2230,1,1,0,1
4.782,2197,1,1,0,1
4.784,2174,1,1,0,1
4.786,2165,1,1,0,1
4.788,2162,1,1,0,1
4.79,2157,1,1,0,1
4.792,2141,1,1,0,1
4.794,2119,1,1,0,1
4.796,2089,1,1,0,1
4.798,2055,1,1,0,1
4.8,2027,1,1,0,1
4.802,2010,1,1,0,1
4.804,1997,1,1,0,1
4.806,1986,1,1,0,1
4.808,1963,1,1,0,1
4.81,1929,1,1,0,1
4.812,1882,1,1,0,1
4.814,1838,1,1,0,1
4.816,1809,1,1,0,1
4.818,1801,1,1,0,1
4.82,1812,1,1,0,1
4.822,1834,1,1,0,1
4.824,1853,1,1,0,1
4.826,1863,1,1,0,1
4.828,1857,1,1,0,1
4.83,1842,1,1,0,1
4.832,1832,1,1,0,1
4.834,1837,1,1,0,1
4.836,1857,1,1,0,1
4.838,1883,1,1,0,1
4.84,1911,1,1,0,1
4.842,1927,1,1,0,1
4.844,1925,1,1,0,1
4.846,1909,1,1,0,1
4.848,1890,1,1,0,1
4.85,1880,1,1,0,1
4.852,1885,1,1,0,1
4.854,1901,1,1,0,1
4.856,1918,1,1,0,1
4.858,1929,1,1,0,1
4.86,1925,1,1,0,1
4.862,1908,1,1,0,1
4.864,1886,1,1,0,1
4.866,1874,1,1,0,1
4.868,1878,1,1,0,1
4.87,1897,1,1,0,1
4.872,1919,1,1,0,1
4.874,1932,1,1,0,1
4.876,1924,1,1,0,1
4.878,1897,1,1,0,1
4.88,1863,1,1,0,1
4.882,1842,1,1,0,1
4.884,1855,1,1,0,1
4.886,1922,1,1,0,1
4.888,2038,1,1,0,1
4.89,2204,1,1,0,1
4.892,2408,1,1,0,1
4.894,2654,1,1,0,1
4.896,2953,1,1,0,1
4.898,3305,1,1,0,1
4.9,3701,1,1,0,1
4.902,4026,1,1,0,1
4.904,4059,1,1,0,1
4.906,4061,1,1,0,1
4.908,4061,1,1,0,1
4.91,4060,1,1,0,1
4.912,4061,1,1,0,1
4.914,3961,1,1,0,1
4.916,3690,1,1,0,1
4.918,3295,1,1,0,1
4.92,2802,1,1,0,1
4.922,2220,1,1,0,1
4.924,1558,1,1,0,1
4.926,877,1,1,0,1
4.928,233,1,1,0,1
4.93,12,1,1,0,1
4.932,1,1,1,0,1
4.934,0,1,1,0,1
4.936,0,1,1,0,1
4.938,0,1,1,0,1
4.94,0,1,1,0,1
4.942,0,1,1,0,1
4.944,0,1,1,0,1
4.946,0,1,1,0,1
4.948,0,1,1,0,1
4.95,0,1,1,0,1
4.952,3,1,1,0,1
4.954,95,1,1,0,1
4.956,265,1,1,0,1
4.958,477,1,1,0,1
4.96,713,1,1,0,1
4.962,962,1,1,0,1
4.964,1219,1,1,0,1
4.966,1479,1,1,0,1
4.968,1738,1,1,0,1
4.97,1979,1,1,0,1
4.972,2189,1,1,0,1
4.974,2353,1,1,0,1
4.976,2463,1,1,0,1
4.978,2524,1,1,0,1
4.98,2549,1,1,0,1
4.982,2555,1,1,0,1
4.984,2556,1,1,0,1
4.986,2559,1,1,0,1
4.988,2565,1,1,0,1
4.99,2555,1,1,0,1
4.992,2532,1,1,0,1
4.994,2490,1,1,0,1
4.996,2442,1,1,0,1
4.998,2395,1,1,0,1
5,2366,1,1,0,1
5.002,2358,1,1,0,1
5.004,2366,1,1,0,1
5.006,2382,1,1,0,1
5.008,2391,1,1,0,1
5.01,2389,1,1,0,1
5.012,2373,1,1,0,1
5.014,2351,1,1,0,1
5.016,2335,1,1,0,1
5.018,2334,1,1,0,1
5.02,2343,1,1,0,1
5.022,2358,1,1,0,1
5.024,2366,1,1,0,1
5.026,2362,1,1,0,1
5.028,2346,1,1,0,1
5.03,2323,1,1,0,1
5.032,2303,1,1,0,1
5.034,2300,1,1,0,1
5.036,2315,1,1,0,1
5.038,2337,1,1,0,1
5.04,2358,1,1,0,1
5.042,2365,1,1,0,1
5.044,2355,1,1,0,1
5.046,2331,1,1,0,1
5.048,2308,1,1,0,1
5.05,2297,1,1,0,1
5.052,2307,1,1,0,1
5.054,2325,1,1,0,1
5.056,2342,1,1,0,1
5.058,2351,1,1,0,1
5.06,2347,1,1,0,1
5.062,2330,1,1,0,1
5.064,2309,1,1,0,1
5.066,2294,1,1,0,1
5.068,2292,1,1,0,1
5.07,2301,1,1,0,1
5.072,2318,1,1,0,1
5.074,2327,1,1,0,1
5.076,2325,1,1,0,1
5.078,2310,1,1,0,1
5.08,2289,1,1,0,1
5.082,2274,1,1,0,1
5.084,2274,1,1,0,1
5.086,2291,1,1,0,1
5.088,2319,1,1,0,1
5.09,2345,1,1,0,1
5.092,2357,1,1,0,1
5.094,2354,1,1,0,1
5.096,2341,1,1,0,1
5.098,2325,1,1,0,1
5.1,2321,1,1,0,1
5.102,2331,1,1,0,1
5.104,2355,1,1,0,1
5.106,2381,1,1,0,1
5.108,2398,1,1,0,1
5.11,2401,1,1,0,1
5.112,2389,1,1,0,1
5.114,2371,1,1,0,1
5.116,2361,1,1,0,1
5.118,2370,1,1,0,1
5.12,2393,1,1,0,1
5.122,2420,1,1,0,1
5.124,2442,1,1,0,1
5.126,2445,1,1,0,1
5.128,2431,1,1,0,1
5.13,2409,1,1,0,1
5.132,2389,1,1,0,1
5.134,2381,1,1,0,1
5.136,2388,1,1,0,1
5.138,2403,1,1,0,1
5.14,2415,1,1,0,1
5.142,2414,1,1,0,1
5.144,2398,1,1,0,1
5.146,2373,1,1,0,1
5.148,2348,1,1,0,1
5.15,2335,1,1,0,1
5.152,2341,1,1,0,1
5.154,2359,1,1,0,1
5.156,2381,1,1,0,1
5.158,2394,1,1,0,1
5.16,2394,1,1,0,1
5.162,2379,1,1,0,1
5.164,2355,1,1,0,1
5.166,2335,1,1,0,1
5.168,2330,1,1,0,1
5.17,2334,1,1,0,1
5.172,2343,1,1,0,1
5.174,2346,1,1,0,1
5.176,2334,1,1,0,1
5.178,2307,1,1,0,1
5.18,2271,1,1,0,1
5.182,2244,1,1,0,1
5.184,2230,1,1,0,1
5.186,2231,1,1,0,1
5.188,2243,1,1,0,1
5.19,2249,1,1,0,1
5.192,2246,1,1,0,1
5.194,2228,1,1,0,1
5.196,2199,1,1,0,1
5.198,2167,1,1,0,1
5.2,2145,1,1,0,1
5.202,2137,1,1,0,1
5.204,2139,1,1,0,1
5.206,2141,1,1,0,1
5.208,2134,1,1,0,1
5.21,2108,1,1,0,1
5.212,2069,1,1,0,1
5.214,2023,1,1,0,1
5.216,1987,1,1,0,1
5.218,1963,1,1,0,1
5.22,1955,1,1,0,1
5.222,1948,1,1,0,1
5.224,1933,1,1,0,1
5.226,1903,1,1,0,1
5.228,1859,1,1,0,1
5.23,1807,1,1,0,1
5.232,1759,1,1,0,1
5.234,1724,1,1,0,1
5.236,1706,1,1,0,1
5.238,1697,1,1,0,1
5.24,1688,1,1,0,1
5.242,1671,1,1,0,1
5.244,1643,1,1,0,1
5.246,1606,1,1,0,1
5.248,1574,1,1,0,1
5.25,1558,1,1,0,1
5.252,1560,1,1,0,1
5.254,1577,1,1,0,1
5.256,1597,1,1,0,1
5.258,1612,1,1,0,1
5.26,1610,1,1,0,1
5.262,1591,1,1,0,1
5.264,1569,1,1,0,1
5.266,1558,1,1,0,1
5.268,1565,1,1,0,1
5.27,1588,1,1,0,1
5.272,1618,1,1,0,1
5.274,1641,1,1,0,1
5.276,1647,1,1,0,1
5.278,1637,1,1,0,1
5.28,1621,1,1,0,1
5.282,1609,1,1,0,1
5.284,1610,1,1,0,1
5.286,1626,1,1,0,1
5.288,1653,1,1,0,1
5.29,1678,1,1,0,1
5.292,1689,1,1,0,1
5.294,1686,1,1,0,1
5.296,1673,1,1,0,1
5.298,1659,1,1,0,1
5.3,1658,1,1,0,1
5.302,1677,1,1,0,1
5.304,1705,1,1,0,1
5.306,1733,1,1,0,1
5.308,1749,1,1,0,1
5.31,1749,1,1,0,1
5.312,1731,1,1,0,1
5.314,1705,1,1,0,1
5.316,1687,1,1,0,1
5.318,1687,1,1,0,1
5.32,1702,1,1,0,1
5.322,1724,1,1,0,1
5.324,1743,1,1,0,1
5.326,1749,1,1,0,1
5.328,1739,1,1,0,1
5.33,1724,1,1,0,1
5.332,1715,1,1,0,1
5.334,1720,1,1,0,1
5.336,1741,1,1,0,1
5.338,1771,1,1,0,1
5.34,1796,1,1,0,1
5.342,1803,1,1,0,1
5.344,1795,1,1,0,1
5.346,1775,1,1,0,1
5.348,1756,1,1,0,1
5.35,1751,1,1,0,1
5.352,1763,1,1,0,1
5.354,1787,1,1,0,1
5.356,1815,1,1,0,1
5.358,1833,1,1,0,1
5.36,1833,1,1,0,1
5.362,1818,1,1,0,1
5.364,1801,1,1,0,1
5.366,1795,1,1,0,1
5.368,1803,1,1,0,1
5.37,1823,1,1,0,1
5.372,1845,1,1,0,1
5.374,1859,1,1,0,1
5.376,1859,1,1,0,1
5.378,1843,1,1,0,1
5.38,1820,1,1,0,1
5.382,1806,1,1,0,1
5.384,1811,1,1,0,1
5.386,1833,1,1,0,1
5.388,1865,1,1,0,1
5.39,1892,1,1,0,1
5.392,1903,1,1,0,1
5.394,1897,1,1,0,1
5.396,1876,1,1,0,1
5.398,1853,1,1,0,1
5.4,1843,1,1,0,1
5.402,1849,1,1,0,1
5.404,1865,1,1,0,1
5.406,1882,1,1,0,1
5.408,1889,1,1,0,1
5.41,1878,1,1,0,1
5.412,1853,1,1,0,1
5.414,1825,1,1,0,1
5.416,1809,1,1,0,1
5.418,1813,1,1,0,1
5.42,1833,1,1,0,1
5.422,1861,1,1,0,1
5.424,1885,1,1,0,1
5.426,1894,1,1,0,1
5.428,1886,1,1,0,1
5.43,1868,1,1,0,1
5.432,1853,1,1,0,1
5.434,1851,1,1,0,1
5.436,1867,1,1,0,1
5.438,1893,1,1,0,1
5.44,1915,1,1,0,1
5.442,1927,1,1,0,1
5.444,1922,1,1,0,1
5.446,1902,1,1,0,1
5.448,1883,1,1,0,1
5.45,1879,1,1,0,1
5.452,1890,1,1,0,1
5.454,1911,1,1,0,1
5.456,1934,1,1,0,1
5.458,1942,1,1,0,1
5.46,1933,1,1,0,1
5.462,1911,1,1,0,1
5.464,1887,1,1,0,1
5.466,1874,1,1,0,1
5.468,1877,1,1,0,1
5.47,1894,1,1,0,1
5.472,1918,1,1,0,1
5.474,1937,1,1,0,1
5.476,1939,1,1,0,1
5.478,1924,1,1,0,1
5.48,1898,1,1,0,1
5.482,1879,1,1,0,1
5.484,1876,1,1,0,1
5.486,1893,1,1,0,1
5.488,1917,1,1,0,1
5.49,1940,1,1,0,1
5.492,1949,1,1,0,1
5.494,1943,1,1,0,1
5.496,1929,1,1,0,1
5.498,1912,1,1,0,1
5.5,1907,1,1,0,1
5.502,1917,1,1,0,1
5.504,1941,1,1,0,1
5.506,1965,1,1,0,1
5.508,1978,1,1,0,1
5.51,1973,1,1,0,1
5.512,1951,1,1,0,1
5.514,1925,1,1,0,1
5.516,1909,1,1,0,1
5.518,1909,1,1,0,1
5.52,1923,1,1,0,1
5.522,1943,1,1,0,1
5.524,1961,1,1,0,1
5.526,1966,1,1,0,1
5.528,1955,1,1,0,1
5.53,1934,1,1,0,1
5.532,1918,1,1,0,1
5.534,1919,1,1,0,1
5.536,1938,1,1,0,1
5.538,1963,1,1,0,1
5.54,1987,1,1,0,1
5.542,1994,1,1,0,1
5.544,1987,1,1,0,1
5.546,1969,1,1,0,1
5.548,1951,1,1,0,1
5.55,1946,1,1,0,1
5.552,1958,1,1,0,1
5.554,1981,1,1,0,1
5.556,2005,1,1,0,1
5.558,2020,1,1,0,1
5.56,2020,1,1,0,1
5.562,2006,1,1,0,1
5.564,1987,1,1,0,1
5.566,1973,1,1,0,1
5.568,1973,1,1,0,1
5.57,1987,1,1,0,1
5.572,2003,1,1,0,1
5.574,2014,1,1,0,1
5.576,2011,1,1,0,1
5.578,1997,1,1,0,1
5.58,1975,1,1,0,1
5.582,1961,1,1,0,1
5.584,1961,1,1,0,1
5.586,1979,1,1,0,1
5.588,2007,1,1,0,1
5.59,2031,1,1,0,1
5.592,2039,1,1,0,1
5.594,2031,1,1,0,1
5.596,2010,1,1,0,1
5.598,1988,1,1,0,1
5.6,1975,1,1,0,1
5.602,1978,1,1,0,1
5.604,1991,1,1,0,1
5.606,2009,1,1,0,1
5.608,2019,1,1,0,1
5.61,2013,1,1,0,1
5.612,1995,1,1,0,1
5.614,1974,1,1,0,1
5.616,1963,1,1,0,1
5.618,1966,1,1,0,1
5.62,1987,1,1,0,1
5.622,2012,1,1,0,1
5.624,2030,1,1,0,1
5.626,2035,1,1,0,1
5.628,2025,1,1,0,1
5.63,2006,1,1,0,1
5.632,1989,1,1,0,1
5.634,1983,1,1,0,1
5.636,1996,1,1,0,1
5.638,2019,1,1,0,1
5.64,2037,1,1,0,1
5.642,2046,1,1,0,1
5.644,2039,1,1,0,1
5.646,2021,1,1,0,1
5.648,2004,1,1,0,1
5.65,1999,1,1,0,1
5.652,2010,1,1,0,1
5.654,2033,1,1,0,1
5.656,2059,1,1,0,1
5.658,2074,1,1,0,1
5.66,2075,1,1,0,1
5.662,2065,1,1,0,1
5.664,2044,1,1,0,1
5.666,2034,1,1,0,1
5.668,2041,1,1,0,1
5.67,2067,1,1,0,1
5.672,2097,1,1,0,1
5.674,2123,1,1,0,1
5.676,2135,1,1,0,1
5.678,2133,1,1,0,1
5.68,2122,1,1,0,1
5.682,2111,1,1,0,1
5.684,2114,1,1,0,1
5.686,2125,1,1,0,1
5.688,2142,1,1,0,1
5.69,2154,1,1,0,1
5.692,2157,1,1,0,1
5.694,2145,1,1,0,1
5.696,2125,1,1,0,1
