#Digilent WaveForms Logic Analyzer Acquisition
#Device Name: Discovery2
#Serial Number: SN:210321AA2ABB
#Date Time: 2024-08-13 19:46:20.655
#Sample rate: 500Hz
#Samples: 4096

Time (s),Data,DV,MISO,MOSI,SCK
-2.494,1513,1,1,0,1
-2.492,1574,1,1,0,1
-2.49,1603,1,1,0,1
-2.488,1602,1,1,0,1
-2.486,1587,1,1,0,1
-2.484,1567,1,1,0,1
-2.482,1562,1,1,0,1
-2.48,1575,1,1,0,1
-2.478,1601,1,1,0,1
-2.476,1619,1,1,0,1
-2.474,1618,1,1,0,1
-2.472,1586,1,1,0,1
-2.47,1539,1,1,0,1
-2.468,1505,1,1,0,1
-2.466,1497,1,1,0,1
-2.464,1509,1,1,0,1
-2.462,1530,1,1,0,1
-2.46,1552,1,1,0,1
-2.458,1567,1,1,0,1
-2.456,1575,1,1,0,1
-2.454,1558,1,1,0,1
-2.452,1517,1,1,0,1
-2.45,1474,1,1,0,1
-2.448,1439,1,1,0,1
-2.446,1413,1,1,0,1
-2.444,1386,1,1,0,1
-2.442,1357,1,1,0,1
-2.44,1319,1,1,0,1
-2.438,1269,1,1,0,1
-2.436,1230,1,1,0,1
-2.434,1236,1,1,0,1
-2.432,1291,1,1,0,1
-2.43,1381,1,1,0,1
-2.428,1483,1,1,0,1
-2.426,1573,1,1,0,1
-2.424,1634,1,1,0,1
-2.422,1662,1,1,0,1
-2.42,1673,1,1,0,1
-2.418,1678,1,1,0,1
-2.416,1703,1,1,0,1
-2.414,1753,1,1,0,1
-2.412,1821,1,1,0,1
-2.41,1889,1,1,0,1
-2.408,1934,1,1,0,1
-2.406,1944,1,1,0,1
-2.404,1925,1,1,0,1
-2.402,1903,1,1,0,1
-2.4,1903,1,1,0,1
-2.398,1925,1,1,0,1
-2.396,1955,1,1,0,1
-2.394,1981,1,1,0,1
-2.392,1993,1,1,0,1
-2.39,1983,1,1,0,1
-2.388,1954,1,1,0,1
-2.386,1911,1,1,0,1
-2.384,1877,1,1,0,1
-2.382,1865,1,1,0,1
-2.38,1873,1,1,0,1
-2.378,1891,1,1,0,1
-2.376,1905,1,1,0,1
-2.374,1901,1,1,0,1
-2.372,1884,1,1,0,1
-2.37,1863,1,1,0,1
-2.368,1854,1,1,0,1
-2.366,1866,1,1,0,1
-2.364,1877,1,1,0,1
-2.362,1883,1,1,0,1
-2.36,1903,1,1,0,1
-2.358,1940,1,1,0,1
-2.356,1967,1,1,0,1
-2.354,1993,1,1,0,1
-2.352,2030,1,1,0,1
-2.35,2097,1,1,0,1
-2.348,2181,1,1,0,1
-2.346,2274,1,1,0,1
-2.344,2373,1,1,0,1
-2.342,2463,1,1,0,1
-2.34,2539,1,1,0,1
-2.338,2587,1,1,0,1
-2.336,2602,1,1,0,1
-2.334,2595,1,1,0,1
-2.332,2582,1,1,0,1
-2.33,2573,1,1,0,1
-2.328,2565,1,1,0,1
-2.326,2539,1,1,0,1
-2.324,2484,1,1,0,1
-2.322,2390,1,1,0,1
-2.32,2275,1,1,0,1
-2.318,2158,1,1,0,1
-2.316,2069,1,1,0,1
-2.314,2010,1,1,0,1
-2.312,1971,1,1,0,1
-2.31,1938,1,1,0,1
-2.308,1891,1,1,0,1
-2.306,1829,1,1,0,1
-2.304,1770,1,1,0,1
-2.302,1725,1,1,0,1
-2.3,1713,1,1,0,1
-2.298,1735,1,1,0,1
-2.296,1777,1,1,0,1
-2.294,1821,1,1,0,1
-2.292,1851,1,1,0,1
-2.29,1849,1,1,0,1
-2.288,1814,1,1,0,1
-2.286,1758,1,1,0,1
-2.284,1713,1,1,0,1
-2.282,1698,1,1,0,1
-2.28,1722,1,1,0,1
-2.278,1778,1,1,0,1
-2.276,1847,1,1,0,1
-2.274,1911,1,1,0,1
-2.272,1959,1,1,0,1
-2.27,1986,1,1,0,1
-2.268,1999,1,1,0,1
-2.266,2014,1,1,0,1
-2.264,2029,1,1,0,1
-2.262,2047,1,1,0,1
-2.26,2062,1,1,0,1
-2.258,2054,1,1,0,1
-2.256,2025,1,1,0,1
-2.254,1982,1,1,0,1
-2.252,1947,1,1,0,1
-2.25,1931,1,1,0,1
-2.248,1937,1,1,0,1
-2.246,1962,1,1,0,1
-2.244,1991,1,1,0,1
-2.242,2004,1,1,0,1
-2.24,1987,1,1,0,1
-2.238,1937,1,1,0,1
-2.236,1875,1,1,0,1
-2.234,1825,1,1,0,1
-2.232,1810,1,1,0,1
-2.23,1843,1,1,0,1
-2.228,1919,1,1,0,1
-2.226,2035,1,1,0,1
-2.224,2181,1,1,0,1
-2.222,2354,1,1,0,1
-2.22,2578,1,1,0,1
-2.218,2874,1,1,0,1
-2.216,3255,1,1,0,1
-2.214,3709,1,1,0,1
-2.212,4035,1,1,0,1
-2.21,4061,1,1,0,1
-2.208,4061,1,1,0,1
-2.206,4061,1,1,0,1
-2.204,4061,1,1,0,1
-2.202,4062,1,1,0,1
-2.2,4061,1,1,0,1
-2.198,4061,1,1,0,1
-2.196,4061,1,1,0,1
-2.194,3987,1,1,0,1
-2.192,3700,1,1,0,1
-2.19,3213,1,1,0,1
-2.188,2566,1,1,0,1
-2.186,1833,1,1,0,1
-2.184,1097,1,1,0,1
-2.182,432,1,1,0,1
-2.18,33,1,1,0,1
-2.178,1,1,1,0,1
-2.176,0,1,1,0,1
-2.174,0,1,1,0,1
-2.172,0,1,1,0,1
-2.17,0,1,1,0,1
-2.168,0,1,1,0,1
-2.166,0,1,1,0,1
-2.164,0,1,1,0,1
-2.162,0,1,1,0,1
-2.16,0,1,1,0,1
-2.158,0,1,1,0,1
-2.156,0,1,1,0,1
-2.154,0,1,1,0,1
-2.152,0,1,1,0,1
-2.15,0,1,1,0,1
-2.148,0,1,1,0,1
-2.146,6,1,1,0,1
-2.144,100,1,1,0,1
-2.142,250,1,1,0,1
-2.14,416,1,1,0,1
-2.138,584,1,1,0,1
-2.136,749,1,1,0,1
-2.134,922,1,1,0,1
-2.132,1110,1,1,0,1
-2.13,1305,1,1,0,1
-2.128,1493,1,1,0,1
-2.126,1661,1,1,0,1
-2.124,1804,1,1,0,1
-2.122,1897,1,1,0,1
-2.12,1959,1,1,0,1
-2.118,2028,1,1,0,1
-2.116,2121,1,1,0,1
-2.114,2211,1,1,0,1
-2.112,2289,1,1,0,1
-2.11,2356,1,1,0,1
-2.108,2405,1,1,0,1
-2.106,2436,1,1,0,1
-2.104,2449,1,1,0,1
-2.102,2466,1,1,0,1
-2.1,2502,1,1,0,1
-2.098,2565,1,1,0,1
-2.096,2643,1,1,0,1
-2.094,2724,1,1,0,1
-2.092,2786,1,1,0,1
-2.09,2827,1,1,0,1
-2.088,2847,1,1,0,1
-2.086,2855,1,1,0,1
-2.084,2861,1,1,0,1
-2.082,2866,1,1,0,1
-2.08,2860,1,1,0,1
-2.078,2837,1,1,0,1
-2.076,2779,1,1,0,1
-2.074,2675,1,1,0,1
-2.072,2526,1,1,0,1
-2.07,2359,1,1,0,1
-2.068,2199,1,1,0,1
-2.066,2077,1,1,0,1
-2.064,1999,1,1,0,1
-2.062,1982,1,1,0,1
-2.06,2027,1,1,0,1
-2.058,2098,1,1,0,1
-2.056,2142,1,1,0,1
-2.054,2158,1,1,0,1
-2.052,2167,1,1,0,1
-2.05,2197,1,1,0,1
-2.048,2255,1,1,0,1
-2.046,2331,1,1,0,1
-2.044,2403,1,1,0,1
-2.042,2452,1,1,0,1
-2.04,2469,1,1,0,1
-2.038,2450,1,1,0,1
-2.036,2413,1,1,0,1
-2.034,2379,1,1,0,1
-2.032,2378,1,1,0,1
-2.03,2418,1,1,0,1
-2.028,2487,1,1,0,1
-2.026,2558,1,1,0,1
-2.024,2614,1,1,0,1
-2.022,2641,1,1,0,1
-2.02,2645,1,1,0,1
-2.018,2645,1,1,0,1
-2.016,2639,1,1,0,1
-2.014,2631,1,1,0,1
-2.012,2621,1,1,0,1
-2.01,2597,1,1,0,1
-2.008,2549,1,1,0,1
-2.006,2471,1,1,0,1
-2.004,2373,1,1,0,1
-2.002,2282,1,1,0,1
-2,2221,1,1,0,1
-1.998,2197,1,1,0,1
-1.996,2211,1,1,0,1
-1.994,2246,1,1,0,1
-1.992,2279,1,1,0,1
-1.99,2309,1,1,0,1
-1.988,2330,1,1,0,1
-1.986,2351,1,1,0,1
-1.984,2391,1,1,0,1
-1.982,2457,1,1,0,1
-1.98,2550,1,1,0,1
-1.978,2663,1,1,0,1
-1.976,2770,1,1,0,1
-1.974,2857,1,1,0,1
-1.972,2909,1,1,0,1
-1.97,2931,1,1,0,1
-1.968,2923,1,1,0,1
-1.966,2891,1,1,0,1
-1.964,2835,1,1,0,1
-1.962,2770,1,1,0,1
-1.96,2711,1,1,0,1
-1.958,2671,1,1,0,1
-1.956,2615,1,1,0,1
-1.954,2514,1,1,0,1
-1.952,2427,1,1,0,1
-1.95,2395,1,1,0,1
-1.948,2398,1,1,0,1
-1.946,2418,1,1,0,1
-1.944,2429,1,1,0,1
-1.942,2411,1,1,0,1
-1.94,2354,1,1,0,1
-1.938,2261,1,1,0,1
-1.936,2166,1,1,0,1
-1.934,2098,1,1,0,1
-1.932,2059,1,1,0,1
-1.93,2035,1,1,0,1
-1.928,2028,1,1,0,1
-1.926,2029,1,1,0,1
-1.924,2030,1,1,0,1
-1.922,2026,1,1,0,1
-1.92,2028,1,1,0,1
-1.918,2059,1,1,0,1
-1.916,2110,1,1,0,1
-1.914,2184,1,1,0,1
-1.912,2275,1,1,0,1
-1.91,2367,1,1,0,1
-1.908,2431,1,1,0,1
-1.906,2444,1,1,0,1
-1.904,2399,1,1,0,1
-1.902,2322,1,1,0,1
-1.9,2239,1,1,0,1
-1.898,2181,1,1,0,1
-1.896,2143,1,1,0,1
-1.894,2114,1,1,0,1
-1.892,2069,1,1,0,1
-1.89,1994,1,1,0,1
-1.888,1890,1,1,0,1
-1.886,1764,1,1,0,1
-1.884,1630,1,1,0,1
-1.882,1509,1,1,0,1
-1.88,1404,1,1,0,1
-1.878,1329,1,1,0,1
-1.876,1284,1,1,0,1
-1.874,1270,1,1,0,1
-1.872,1277,1,1,0,1
-1.87,1310,1,1,0,1
-1.868,1368,1,1,0,1
-1.866,1449,1,1,0,1
-1.864,1545,1,1,0,1
-1.862,1638,1,1,0,1
-1.86,1693,1,1,0,1
-1.858,1698,1,1,0,1
-1.856,1661,1,1,0,1
-1.854,1608,1,1,0,1
-1.852,1557,1,1,0,1
-1.85,1533,1,1,0,1
-1.848,1549,1,1,0,1
-1.846,1597,1,1,0,1
-1.844,1675,1,1,0,1
-1.842,1762,1,1,0,1
-1.84,1835,1,1,0,1
-1.838,1877,1,1,0,1
-1.836,1892,1,1,0,1
-1.834,1889,1,1,0,1
-1.832,1874,1,1,0,1
-1.83,1853,1,1,0,1
-1.828,1829,1,1,0,1
-1.826,1801,1,1,0,1
-1.824,1758,1,1,0,1
-1.822,1701,1,1,0,1
-1.82,1639,1,1,0,1
-1.818,1589,1,1,0,1
-1.816,1559,1,1,0,1
-1.814,1542,1,1,0,1
-1.812,1521,1,1,0,1
-1.81,1485,1,1,0,1
-1.808,1430,1,1,0,1
-1.806,1353,1,1,0,1
-1.804,1265,1,1,0,1
-1.802,1182,1,1,0,1
-1.8,1121,1,1,0,1
-1.798,1091,1,1,0,1
-1.796,1090,1,1,0,1
-1.794,1098,1,1,0,1
-1.792,1098,1,1,0,1
-1.79,1084,1,1,0,1
-1.788,1074,1,1,0,1
-1.786,1076,1,1,0,1
-1.784,1094,1,1,0,1
-1.782,1117,1,1,0,1
-1.78,1137,1,1,0,1
-1.778,1164,1,1,0,1
-1.776,1206,1,1,0,1
-1.774,1266,1,1,0,1
-1.772,1340,1,1,0,1
-1.77,1436,1,1,0,1
-1.768,1546,1,1,0,1
-1.766,1675,1,1,0,1
-1.764,1821,1,1,0,1
-1.762,1965,1,1,0,1
-1.76,2091,1,1,0,1
-1.758,2190,1,1,0,1
-1.756,2253,1,1,0,1
-1.754,2279,1,1,0,1
-1.752,2265,1,1,0,1
-1.75,2234,1,1,0,1
-1.748,2207,1,1,0,1
-1.746,2197,1,1,0,1
-1.744,2211,1,1,0,1
-1.742,2255,1,1,0,1
-1.74,2311,1,1,0,1
-1.738,2343,1,1,0,1
-1.736,2333,1,1,0,1
-1.734,2285,1,1,0,1
-1.732,2218,1,1,0,1
-1.73,2137,1,1,0,1
-1.728,2029,1,1,0,1
-1.726,1889,1,1,0,1
-1.724,1733,1,1,0,1
-1.722,1598,1,1,0,1
-1.72,1490,1,1,0,1
-1.718,1414,1,1,0,1
-1.716,1378,1,1,0,1
-1.714,1369,1,1,0,1
-1.712,1377,1,1,0,1
-1.71,1391,1,1,0,1
-1.708,1377,1,1,0,1
-1.706,1325,1,1,0,1
-1.704,1250,1,1,0,1
-1.702,1177,1,1,0,1
-1.7,1106,1,1,0,1
-1.698,1030,1,1,0,1
-1.696,949,1,1,0,1
-1.694,871,1,1,0,1
-1.692,795,1,1,0,1
-1.69,727,1,1,0,1
-1.688,680,1,1,0,1
-1.686,665,1,1,0,1
-1.684,695,1,1,0,1
-1.682,774,1,1,0,1
-1.68,897,1,1,0,1
-1.678,1037,1,1,0,1
-1.676,1164,1,1,0,1
-1.674,1257,1,1,0,1
-1.672,1299,1,1,0,1
-1.67,1311,1,1,0,1
-1.668,1343,1,1,0,1
-1.666,1402,1,1,0,1
-1.664,1478,1,1,0,1
-1.662,1572,1,1,0,1
-1.66,1674,1,1,0,1
-1.658,1757,1,1,0,1
-1.656,1810,1,1,0,1
-1.654,1831,1,1,0,1
-1.652,1843,1,1,0,1
-1.65,1866,1,1,0,1
-1.648,1910,1,1,0,1
-1.646,1975,1,1,0,1
-1.644,2046,1,1,0,1
-1.642,2115,1,1,0,1
-1.64,2164,1,1,0,1
-1.638,2194,1,1,0,1
-1.636,2206,1,1,0,1
-1.634,2199,1,1,0,1
-1.632,2185,1,1,0,1
-1.63,2156,1,1,0,1
-1.628,2115,1,1,0,1
-1.626,2069,1,1,0,1
-1.624,2004,1,1,0,1
-1.622,1925,1,1,0,1
-1.62,1831,1,1,0,1
-1.618,1741,1,1,0,1
-1.616,1673,1,1,0,1
-1.614,1635,1,1,0,1
-1.612,1621,1,1,0,1
-1.61,1618,1,1,0,1
-1.608,1617,1,1,0,1
-1.606,1622,1,1,0,1
-1.604,1631,1,1,0,1
-1.602,1653,1,1,0,1
-1.6,1697,1,1,0,1
-1.598,1756,1,1,0,1
-1.596,1833,1,1,0,1
-1.594,1906,1,1,0,1
-1.592,1951,1,1,0,1
-1.59,1953,1,1,0,1
-1.588,1919,1,1,0,1
-1.586,1880,1,1,0,1
-1.584,1853,1,1,0,1
-1.582,1853,1,1,0,1
-1.58,1879,1,1,0,1
-1.578,1924,1,1,0,1
-1.576,1963,1,1,0,1
-1.574,1979,1,1,0,1
-1.572,1958,1,1,0,1
-1.57,1901,1,1,0,1
-1.568,1844,1,1,0,1
-1.566,1818,1,1,0,1
-1.564,1833,1,1,0,1
-1.562,1878,1,1,0,1
-1.56,1929,1,1,0,1
-1.558,1951,1,1,0,1
-1.556,1935,1,1,0,1
-1.554,1879,1,1,0,1
-1.552,1794,1,1,0,1
-1.55,1691,1,1,0,1
-1.548,1590,1,1,0,1
-1.546,1517,1,1,0,1
-1.544,1498,1,1,0,1
-1.542,1545,1,1,0,1
-1.54,1649,1,1,0,1
-1.538,1801,1,1,0,1
-1.536,2009,1,1,0,1
-1.534,2291,1,1,0,1
-1.532,2653,1,1,0,1
-1.53,3095,1,1,0,1
-1.528,3589,1,1,0,1
-1.526,4010,1,1,0,1
-1.524,4058,1,1,0,1
-1.522,4061,1,1,0,1
-1.52,4061,1,1,0,1
-1.518,4062,1,1,0,1
-1.516,4061,1,1,0,1
-1.514,4061,1,1,0,1
-1.512,4061,1,1,0,1
-1.51,4061,1,1,0,1
-1.508,4061,1,1,0,1
-1.506,4061,1,1,0,1
-1.504,3979,1,1,0,1
-1.502,3646,1,1,0,1
-1.5,3139,1,1,0,1
-1.498,2527,1,1,0,1
-1.496,1887,1,1,0,1
-1.494,1268,1,1,0,1
-1.492,692,1,1,0,1
-1.49,166,1,1,0,1
-1.488,8,1,1,0,1
-1.486,0,1,1,0,1
-1.484,0,1,1,0,1
-1.482,0,1,1,0,1
-1.48,0,1,1,0,1
-1.478,0,1,1,0,1
-1.476,0,1,1,0,1
-1.474,0,1,1,0,1
-1.472,0,1,1,0,1
-1.47,0,1,1,0,1
-1.468,0,1,1,0,1
-1.466,0,1,1,0,1
-1.464,0,1,1,0,1
-1.462,0,1,1,0,1
-1.46,0,1,1,0,1
-1.458,34,1,1,0,1
-1.456,163,1,1,0,1
-1.454,354,1,1,0,1
-1.452,589,1,1,0,1
-1.45,857,1,1,0,1
-1.448,1141,1,1,0,1
-1.446,1421,1,1,0,1
-1.444,1684,1,1,0,1
-1.442,1910,1,1,0,1
-1.44,2094,1,1,0,1
-1.438,2237,1,1,0,1
-1.436,2351,1,1,0,1
-1.434,2455,1,1,0,1
-1.432,2556,1,1,0,1
-1.43,2643,1,1,0,1
-1.428,2701,1,1,0,1
-1.426,2729,1,1,0,1
-1.424,2740,1,1,0,1
-1.422,2743,1,1,0,1
-1.42,2745,1,1,0,1
-1.418,2762,1,1,0,1
-1.416,2799,1,1,0,1
-1.414,2858,1,1,0,1
-1.412,2918,1,1,0,1
-1.41,2954,1,1,0,1
-1.408,2947,1,1,0,1
-1.406,2898,1,1,0,1
-1.404,2820,1,1,0,1
-1.402,2741,1,1,0,1
-1.4,2693,1,1,0,1
-1.398,2675,1,1,0,1
-1.396,2678,1,1,0,1
-1.394,2695,1,1,0,1
-1.392,2717,1,1,0,1
-1.39,2714,1,1,0,1
-1.388,2666,1,1,0,1
-1.386,2583,1,1,0,1
-1.384,2490,1,1,0,1
-1.382,2413,1,1,0,1
-1.38,2370,1,1,0,1
-1.378,2351,1,1,0,1
-1.376,2331,1,1,0,1
-1.374,2309,1,1,0,1
-1.372,2302,1,1,0,1
-1.37,2329,1,1,0,1
-1.368,2379,1,1,0,1
-1.366,2444,1,1,0,1
-1.364,2506,1,1,0,1
-1.362,2565,1,1,0,1
-1.36,2613,1,1,0,1
-1.358,2652,1,1,0,1
-1.356,2687,1,1,0,1
-1.354,2731,1,1,0,1
-1.352,2779,1,1,0,1
-1.35,2834,1,1,0,1
-1.348,2887,1,1,0,1
-1.346,2939,1,1,0,1
-1.344,2983,1,1,0,1
-1.342,3005,1,1,0,1
-1.34,2991,1,1,0,1
-1.338,2963,1,1,0,1
-1.336,2935,1,1,0,1
-1.334,2929,1,1,0,1
-1.332,2939,1,1,0,1
-1.33,2967,1,1,0,1
-1.328,3005,1,1,0,1
-1.326,3039,1,1,0,1
-1.324,3066,1,1,0,1
-1.322,3077,1,1,0,1
-1.32,3067,1,1,0,1
-1.318,3059,1,1,0,1
-1.316,3058,1,1,0,1
-1.314,3063,1,1,0,1
-1.312,3085,1,1,0,1
-1.31,3107,1,1,0,1
-1.308,3111,1,1,0,1
-1.306,3101,1,1,0,1
-1.304,3067,1,1,0,1
-1.302,3017,1,1,0,1
-1.3,2958,1,1,0,1
-1.298,2893,1,1,0,1
-1.296,2835,1,1,0,1
-1.294,2777,1,1,0,1
-1.292,2719,1,1,0,1
-1.29,2667,1,1,0,1
-1.288,2619,1,1,0,1
-1.286,2577,1,1,0,1
-1.284,2546,1,1,0,1
-1.282,2529,1,1,0,1
-1.28,2533,1,1,0,1
-1.278,2547,1,1,0,1
-1.276,2567,1,1,0,1
-1.274,2581,1,1,0,1
-1.272,2577,1,1,0,1
-1.27,2546,1,1,0,1
-1.268,2511,1,1,0,1
-1.266,2489,1,1,0,1
-1.264,2474,1,1,0,1
-1.262,2479,1,1,0,1
-1.26,2510,1,1,0,1
-1.258,2538,1,1,0,1
-1.256,2568,1,1,0,1
-1.254,2626,1,1,0,1
-1.252,2722,1,1,0,1
-1.25,2871,1,1,0,1
-1.248,3102,1,1,0,1
-1.246,3386,1,1,0,1
-1.244,3677,1,1,0,1
-1.242,3918,1,1,0,1
-1.24,4047,1,1,0,1
-1.238,4055,1,1,0,1
-1.236,3943,1,1,0,1
-1.234,3746,1,1,0,1
-1.232,3493,1,1,0,1
-1.23,3213,1,1,0,1
-1.228,2921,1,1,0,1
-1.226,2626,1,1,0,1
-1.224,2325,1,1,0,1
-1.222,2034,1,1,0,1
-1.22,1771,1,1,0,1
-1.218,1551,1,1,0,1
-1.216,1381,1,1,0,1
-1.214,1259,1,1,0,1
-1.212,1177,1,1,0,1
-1.21,1123,1,1,0,1
-1.208,1084,1,1,0,1
-1.206,1048,1,1,0,1
-1.204,1013,1,1,0,1
-1.202,990,1,1,0,1
-1.2,994,1,1,0,1
-1.198,1037,1,1,0,1
-1.196,1105,1,1,0,1
-1.194,1181,1,1,0,1
-1.192,1249,1,1,0,1
-1.19,1311,1,1,0,1
-1.188,1365,1,1,0,1
-1.186,1413,1,1,0,1
-1.184,1469,1,1,0,1
-1.182,1541,1,1,0,1
-1.18,1622,1,1,0,1
-1.178,1711,1,1,0,1
-1.176,1791,1,1,0,1
-1.174,1858,1,1,0,1
-1.172,1899,1,1,0,1
-1.17,1918,1,1,0,1
-1.168,1942,1,1,0,1
-1.166,1991,1,1,0,1
-1.164,2057,1,1,0,1
-1.162,2121,1,1,0,1
-1.16,2170,1,1,0,1
-1.158,2191,1,1,0,1
-1.156,2171,1,1,0,1
-1.154,2119,1,1,0,1
-1.152,2033,1,1,0,1
-1.15,1939,1,1,0,1
-1.148,1869,1,1,0,1
-1.146,1842,1,1,0,1
-1.144,1862,1,1,0,1
-1.142,1905,1,1,0,1
-1.14,1938,1,1,0,1
-1.138,1937,1,1,0,1
-1.136,1907,1,1,0,1
-1.134,1866,1,1,0,1
-1.132,1823,1,1,0,1
-1.13,1783,1,1,0,1
-1.128,1749,1,1,0,1
-1.126,1725,1,1,0,1
-1.124,1700,1,1,0,1
-1.122,1660,1,1,0,1
-1.12,1612,1,1,0,1
-1.118,1569,1,1,0,1
-1.116,1541,1,1,0,1
-1.114,1535,1,1,0,1
-1.112,1554,1,1,0,1
-1.11,1580,1,1,0,1
-1.108,1599,1,1,0,1
-1.106,1603,1,1,0,1
-1.104,1591,1,1,0,1
-1.102,1583,1,1,0,1
-1.1,1584,1,1,0,1
-1.098,1595,1,1,0,1
-1.096,1620,1,1,0,1
-1.094,1651,1,1,0,1
-1.092,1678,1,1,0,1
-1.09,1687,1,1,0,1
-1.088,1678,1,1,0,1
-1.086,1660,1,1,0,1
-1.084,1654,1,1,0,1
-1.082,1673,1,1,0,1
-1.08,1713,1,1,0,1
-1.078,1766,1,1,0,1
-1.076,1817,1,1,0,1
-1.074,1854,1,1,0,1
-1.072,1868,1,1,0,1
-1.07,1861,1,1,0,1
-1.068,1851,1,1,0,1
-1.066,1849,1,1,0,1
-1.064,1866,1,1,0,1
-1.062,1892,1,1,0,1
-1.06,1913,1,1,0,1
-1.058,1911,1,1,0,1
-1.056,1886,1,1,0,1
-1.054,1843,1,1,0,1
-1.052,1800,1,1,0,1
-1.05,1785,1,1,0,1
-1.048,1799,1,1,0,1
-1.046,1831,1,1,0,1
-1.044,1867,1,1,0,1
-1.042,1896,1,1,0,1
-1.04,1896,1,1,0,1
-1.038,1863,1,1,0,1
-1.036,1819,1,1,0,1
-1.034,1794,1,1,0,1
-1.032,1799,1,1,0,1
-1.03,1819,1,1,0,1
-1.028,1843,1,1,0,1
-1.026,1859,1,1,0,1
-1.024,1867,1,1,0,1
-1.022,1875,1,1,0,1
-1.02,1891,1,1,0,1
-1.018,1918,1,1,0,1
-1.016,1955,1,1,0,1
-1.014,1993,1,1,0,1
-1.012,2027,1,1,0,1
-1.01,2047,1,1,0,1
-1.008,2045,1,1,0,1
-1.006,2015,1,1,0,1
-1.004,1966,1,1,0,1
-1.002,1919,1,1,0,1
-1,1901,1,1,0,1
-0.998,1917,1,1,0,1
-0.996,1957,1,1,0,1
-0.994,1999,1,1,0,1
-0.992,2027,1,1,0,1
-0.99,2021,1,1,0,1
-0.988,1969,1,1,0,1
-0.986,1885,1,1,0,1
-0.984,1807,1,1,0,1
-0.982,1777,1,1,0,1
-0.98,1799,1,1,0,1
-0.978,1846,1,1,0,1
-0.976,1901,1,1,0,1
-0.974,1942,1,1,0,1
-0.972,1966,1,1,0,1
-0.97,1982,1,1,0,1
-0.968,1998,1,1,0,1
-0.966,2021,1,1,0,1
-0.964,2043,1,1,0,1
-0.962,2058,1,1,0,1
-0.96,2065,1,1,0,1
-0.958,2059,1,1,0,1
-0.956,2026,1,1,0,1
-0.954,1966,1,1,0,1
-0.952,1913,1,1,0,1
-0.95,1895,1,1,0,1
-0.948,1902,1,1,0,1
-0.946,1916,1,1,0,1
-0.944,1925,1,1,0,1
-0.9419999999999999,1903,1,1,0,1
-0.9399999999999999,1857,1,1,0,1
-0.9379999999999999,1791,1,1,0,1
-0.9360000000000001,1715,1,1,0,1
-0.9340000000000001,1650,1,1,0,1
-0.9320000000000001,1618,1,1,0,1
-0.93,1611,1,1,0,1
-0.928,1605,1,1,0,1
-0.926,1572,1,1,0,1
-0.924,1510,1,1,0,1
-0.922,1434,1,1,0,1
-0.92,1378,1,1,0,1
-0.918,1378,1,1,0,1
-0.916,1452,1,1,0,1
-0.914,1591,1,1,0,1
-0.912,1757,1,1,0,1
-0.91,1914,1,1,0,1
-0.908,2038,1,1,0,1
-0.906,2114,1,1,0,1
-0.904,2137,1,1,0,1
-0.902,2124,1,1,0,1
-0.9,2084,1,1,0,1
-0.898,2041,1,1,0,1
-0.896,2017,1,1,0,1
-0.894,2006,1,1,0,1
-0.892,1999,1,1,0,1
-0.89,1990,1,1,0,1
-0.888,1961,1,1,0,1
-0.886,1903,1,1,0,1
-0.884,1835,1,1,0,1
-0.882,1791,1,1,0,1
-0.88,1777,1,1,0,1
-0.878,1775,1,1,0,1
-0.876,1777,1,1,0,1
-0.874,1766,1,1,0,1
-0.872,1740,1,1,0,1
-0.87,1707,1,1,0,1
-0.868,1681,1,1,0,1
-0.866,1674,1,1,0,1
-0.864,1695,1,1,0,1
-0.862,1745,1,1,0,1
-0.86,1818,1,1,0,1
-0.858,1917,1,1,0,1
-0.856,2057,1,1,0,1
-0.854,2252,1,1,0,1
-0.852,2531,1,1,0,1
-0.85,2906,1,1,0,1
-0.848,3359,1,1,0,1
-0.846,3859,1,1,0,1
-0.844,4051,1,1,0,1
-0.842,4061,1,1,0,1
-0.84,4061,1,1,0,1
-0.838,4061,1,1,0,1
-0.836,4061,1,1,0,1
-0.834,4061,1,1,0,1
-0.832,4062,1,1,0,1
-0.83,4061,1,1,0,1
-0.828,4061,1,1,0,1
-0.826,4015,1,1,0,1
-0.824,3758,1,1,0,1
-0.822,3315,1,1,0,1
-0.82,2725,1,1,0,1
-0.8179999999999999,2033,1,1,0,1
-0.8159999999999999,1314,1,1,0,1
-0.8139999999999999,631,1,1,0,1
-0.8120000000000001,81,1,1,0,1
-0.8100000000000001,4,1,1,0,1
-0.8080000000000001,0,1,1,0,1
-0.806,0,1,1,0,1
-0.804,0,1,1,0,1
-0.802,0,1,1,0,1
-0.8,0,1,1,0,1
-0.798,0,1,1,0,1
-0.796,0,1,1,0,1
-0.794,0,1,1,0,1
-0.792,0,1,1,0,1
-0.79,0,1,1,0,1
-0.788,0,1,1,0,1
-0.786,0,1,1,0,1
-0.784,0,1,1,0,1
-0.782,0,1,1,0,1
-0.78,0,1,1,0,1
-0.778,3,1,1,0,1
-0.776,101,1,1,0,1
-0.774,277,1,1,0,1
-0.772,483,1,1,0,1
-0.77,700,1,1,0,1
-0.768,930,1,1,0,1
-0.766,1173,1,1,0,1
-0.764,1420,1,1,0,1
-0.762,1666,1,1,0,1
-0.76,1894,1,1,0,1
-0.758,2071,1,1,0,1
-0.756,2195,1,1,0,1
-0.754,2284,1,1,0,1
-0.752,2370,1,1,0,1
-0.75,2455,1,1,0,1
-0.748,2547,1,1,0,1
-0.746,2651,1,1,0,1
-0.744,2755,1,1,0,1
-0.742,2853,1,1,0,1
-0.74,2925,1,1,0,1
-0.738,2962,1,1,0,1
-0.736,2978,1,1,0,1
-0.734,3007,1,1,0,1
-0.732,3079,1,1,0,1
-0.73,3175,1,1,0,1
-0.728,3286,1,1,0,1
-0.726,3389,1,1,0,1
-0.724,3461,1,1,0,1
-0.722,3483,1,1,0,1
-0.72,3463,1,1,0,1
-0.718,3421,1,1,0,1
-0.716,3387,1,1,0,1
-0.714,3378,1,1,0,1
-0.712,3389,1,1,0,1
-0.71,3403,1,1,0,1
-0.708,3401,1,1,0,1
-0.706,3370,1,1,0,1
-0.704,3317,1,1,0,1
-0.702,3261,1,1,0,1
-0.7,3215,1,1,0,1
-0.698,3182,1,1,0,1
-0.696,3155,1,1,0,1
-0.694,3119,1,1,0,1
-0.6919999999999999,3062,1,1,0,1
-0.6899999999999999,2986,1,1,0,1
-0.6879999999999999,2891,1,1,0,1
-0.6860000000000001,2790,1,1,0,1
-0.6840000000000001,2705,1,1,0,1
-0.6820000000000001,2633,1,1,0,1
-0.68,2581,1,1,0,1
-0.678,2550,1,1,0,1
-0.676,2532,1,1,0,1
-0.674,2507,1,1,0,1
-0.672,2469,1,1,0,1
-0.67,2421,1,1,0,1
-0.668,2381,1,1,0,1
-0.666,2359,1,1,0,1
-0.664,2374,1,1,0,1
-0.662,2417,1,1,0,1
-0.66,2478,1,1,0,1
-0.658,2532,1,1,0,1
-0.656,2559,1,1,0,1
-0.654,2554,1,1,0,1
-0.652,2530,1,1,0,1
-0.65,2513,1,1,0,1
-0.648,2509,1,1,0,1
-0.646,2522,1,1,0,1
-0.644,2538,1,1,0,1
-0.642,2541,1,1,0,1
-0.64,2527,1,1,0,1
-0.638,2503,1,1,0,1
-0.636,2478,1,1,0,1
-0.634,2462,1,1,0,1
-0.632,2469,1,1,0,1
-0.63,2492,1,1,0,1
-0.628,2515,1,1,0,1
-0.626,2526,1,1,0,1
-0.624,2514,1,1,0,1
-0.622,2475,1,1,0,1
-0.62,2425,1,1,0,1
-0.618,2388,1,1,0,1
-0.616,2385,1,1,0,1
-0.614,2417,1,1,0,1
-0.612,2471,1,1,0,1
-0.61,2521,1,1,0,1
-0.608,2550,1,1,0,1
-0.606,2548,1,1,0,1
-0.604,2517,1,1,0,1
-0.602,2473,1,1,0,1
-0.6,2442,1,1,0,1
-0.598,2427,1,1,0,1
-0.596,2425,1,1,0,1
-0.594,2435,1,1,0,1
-0.592,2439,1,1,0,1
-0.59,2429,1,1,0,1
-0.588,2397,1,1,0,1
-0.586,2347,1,1,0,1
-0.584,2287,1,1,0,1
-0.582,2233,1,1,0,1
-0.58,2194,1,1,0,1
-0.578,2188,1,1,0,1
-0.576,2227,1,1,0,1
-0.574,2313,1,1,0,1
-0.572,2437,1,1,0,1
-0.57,2581,1,1,0,1
-0.5679999999999999,2725,1,1,0,1
-0.5659999999999999,2852,1,1,0,1
-0.5639999999999999,2951,1,1,0,1
-0.5620000000000001,3017,1,1,0,1
-0.5600000000000001,3026,1,1,0,1
-0.5580000000000001,2997,1,1,0,1
-0.556,2961,1,1,0,1
-0.554,2927,1,1,0,1
-0.552,2885,1,1,0,1
-0.55,2804,1,1,0,1
-0.548,2702,1,1,0,1
-0.546,2619,1,1,0,1
-0.544,2571,1,1,0,1
-0.542,2541,1,1,0,1
-0.54,2490,1,1,0,1
-0.538,2391,1,1,0,1
-0.536,2259,1,1,0,1
-0.534,2141,1,1,0,1
-0.532,2058,1,1,0,1
-0.53,2025,1,1,0,1
-0.528,2053,1,1,0,1
-0.526,2109,1,1,0,1
-0.524,2163,1,1,0,1
-0.522,2187,1,1,0,1
-0.52,2162,1,1,0,1
-0.518,2102,1,1,0,1
-0.516,2013,1,1,0,1
-0.514,1897,1,1,0,1
-0.512,1751,1,1,0,1
-0.51,1582,1,1,0,1
-0.508,1395,1,1,0,1
-0.506,1208,1,1,0,1
-0.504,1042,1,1,0,1
-0.502,917,1,1,0,1
-0.5,837,1,1,0,1
-0.498,799,1,1,0,1
-0.496,796,1,1,0,1
-0.494,823,1,1,0,1
-0.492,854,1,1,0,1
-0.49,865,1,1,0,1
-0.488,851,1,1,0,1
-0.486,822,1,1,0,1
-0.484,807,1,1,0,1
-0.482,815,1,1,0,1
-0.48,855,1,1,0,1
-0.478,926,1,1,0,1
-0.476,1002,1,1,0,1
-0.474,1059,1,1,0,1
-0.472,1092,1,1,0,1
-0.47,1111,1,1,0,1
-0.468,1122,1,1,0,1
-0.466,1133,1,1,0,1
-0.464,1159,1,1,0,1
-0.462,1210,1,1,0,1
-0.46,1284,1,1,0,1
-0.458,1361,1,1,0,1
-0.456,1433,1,1,0,1
-0.454,1511,1,1,0,1
-0.452,1589,1,1,0,1
-0.45,1661,1,1,0,1
-0.448,1719,1,1,0,1
-0.446,1743,1,1,0,1
-0.444,1749,1,1,0,1
-0.442,1756,1,1,0,1
-0.44,1767,1,1,0,1
-0.438,1773,1,1,0,1
-0.436,1780,1,1,0,1
-0.434,1799,1,1,0,1
-0.432,1841,1,1,0,1
-0.43,1901,1,1,0,1
-0.428,1966,1,1,0,1
-0.426,2021,1,1,0,1
-0.424,2057,1,1,0,1
-0.422,2073,1,1,0,1
-0.42,2075,1,1,0,1
-0.418,2067,1,1,0,1
-0.416,2058,1,1,0,1
-0.414,2045,1,1,0,1
-0.412,2026,1,1,0,1
-0.41,2003,1,1,0,1
-0.408,1974,1,1,0,1
-0.406,1934,1,1,0,1
-0.404,1877,1,1,0,1
-0.402,1807,1,1,0,1
-0.4,1743,1,1,0,1
-0.398,1701,1,1,0,1
-0.396,1683,1,1,0,1
-0.394,1682,1,1,0,1
-0.392,1682,1,1,0,1
-0.39,1677,1,1,0,1
-0.388,1668,1,1,0,1
-0.386,1654,1,1,0,1
-0.384,1651,1,1,0,1
-0.382,1671,1,1,0,1
-0.38,1709,1,1,0,1
-0.378,1759,1,1,0,1
-0.376,1805,1,1,0,1
-0.374,1831,1,1,0,1
-0.372,1842,1,1,0,1
-0.37,1839,1,1,0,1
-0.368,1839,1,1,0,1
-0.366,1855,1,1,0,1
-0.364,1897,1,1,0,1
-0.362,1954,1,1,0,1
-0.36,2007,1,1,0,1
-0.358,2053,1,1,0,1
-0.356,2071,1,1,0,1
-0.354,2075,1,1,0,1
-0.352,2079,1,1,0,1
-0.35,2101,1,1,0,1
-0.348,2157,1,1,0,1
-0.346,2239,1,1,0,1
-0.344,2329,1,1,0,1
-0.342,2395,1,1,0,1
-0.34,2431,1,1,0,1
-0.338,2430,1,1,0,1
-0.336,2406,1,1,0,1
-0.334,2382,1,1,0,1
-0.332,2371,1,1,0,1
-0.33,2370,1,1,0,1
-0.328,2367,1,1,0,1
-0.326,2357,1,1,0,1
-0.324,2318,1,1,0,1
-0.322,2247,1,1,0,1
-0.32,2159,1,1,0,1
-0.318,2087,1,1,0,1
-0.316,2046,1,1,0,1
-0.314,2047,1,1,0,1
-0.312,2069,1,1,0,1
-0.31,2090,1,1,0,1
-0.308,2098,1,1,0,1
-0.306,2089,1,1,0,1
-0.304,2066,1,1,0,1
-0.302,2041,1,1,0,1
-0.3,2029,1,1,0,1
-0.298,2038,1,1,0,1
-0.296,2067,1,1,0,1
-0.294,2101,1,1,0,1
-0.292,2127,1,1,0,1
-0.29,2134,1,1,0,1
-0.288,2115,1,1,0,1
-0.286,2079,1,1,0,1
-0.284,2042,1,1,0,1
-0.282,2034,1,1,0,1
-0.28,2058,1,1,0,1
-0.278,2093,1,1,0,1
-0.276,2123,1,1,0,1
-0.274,2131,1,1,0,1
-0.272,2109,1,1,0,1
-0.27,2069,1,1,0,1
-0.268,2023,1,1,0,1
-0.266,1988,1,1,0,1
-0.264,1961,1,1,0,1
-0.262,1935,1,1,0,1
-0.26,1907,1,1,0,1
-0.258,1874,1,1,0,1
-0.256,1826,1,1,0,1
-0.254,1756,1,1,0,1
-0.252,1689,1,1,0,1
-0.25,1646,1,1,0,1
-0.248,1636,1,1,0,1
-0.246,1650,1,1,0,1
-0.244,1675,1,1,0,1
-0.242,1689,1,1,0,1
-0.24,1674,1,1,0,1
-0.238,1633,1,1,0,1
-0.236,1579,1,1,0,1
-0.234,1531,1,1,0,1
-0.232,1506,1,1,0,1
-0.23,1502,1,1,0,1
-0.228,1515,1,1,0,1
-0.226,1530,1,1,0,1
-0.224,1543,1,1,0,1
-0.222,1543,1,1,0,1
-0.22,1527,1,1,0,1
-0.218,1514,1,1,0,1
-0.216,1517,1,1,0,1
-0.214,1547,1,1,0,1
-0.212,1594,1,1,0,1
-0.21,1643,1,1,0,1
-0.208,1678,1,1,0,1
-0.206,1688,1,1,0,1
-0.204,1659,1,1,0,1
-0.202,1612,1,1,0,1
-0.2,1572,1,1,0,1
-0.198,1571,1,1,0,1
-0.196,1606,1,1,0,1
-0.194,1650,1,1,0,1
-0.192,1683,1,1,0,1
-0.19,1697,1,1,0,1
-0.188,1687,1,1,0,1
-0.186,1663,1,1,0,1
-0.184,1643,1,1,0,1
-0.182,1640,1,1,0,1
-0.18,1658,1,1,0,1
-0.178,1697,1,1,0,1
-0.176,1741,1,1,0,1
-0.174,1789,1,1,0,1
-0.172,1860,1,1,0,1
-0.17,1961,1,1,0,1
-0.168,2121,1,1,0,1
-0.166,2358,1,1,0,1
-0.164,2681,1,1,0,1
-0.162,3083,1,1,0,1
-0.16,3527,1,1,0,1
-0.158,3959,1,1,0,1
-0.156,4055,1,1,0,1
-0.154,4061,1,1,0,1
-0.152,4062,1,1,0,1
-0.15,4062,1,1,0,1
-0.148,4062,1,1,0,1
-0.146,4061,1,1,0,1
-0.144,4061,1,1,0,1
-0.142,4059,1,1,0,1
-0.14,3901,1,1,0,1
-0.138,3539,1,1,0,1
-0.136,3001,1,1,0,1
-0.134,2345,1,1,0,1
-0.132,1635,1,1,0,1
-0.13,929,1,1,0,1
-0.128,269,1,1,0,1
-0.126,14,1,1,0,1
-0.124,0,1,1,0,1
-0.122,0,1,1,0,1
-0.12,0,1,1,0,1
-0.118,0,1,1,0,1
-0.116,0,1,1,0,1
-0.114,0,1,1,0,1
-0.112,0,1,1,0,1
-0.11,0,1,1,0,1
-0.108,0,1,1,0,1
-0.106,0,1,1,0,1
-0.104,0,1,1,0,1
-0.102,0,1,1,0,1
-0.1,0,1,1,0,1
-0.098,0,1,1,0,1
-0.096,0,1,1,0,1
-0.094,0,1,1,0,1
-0.092,0,1,1,0,1
-0.09,62,1,1,0,1
-0.08799999999999999,212,1,1,0,1
-0.08599999999999999,421,1,1,0,1
-0.08400000000000001,678,1,1,0,1
-0.082,969,1,1,0,1
-0.08,1274,1,1,0,1
-0.078,1560,1,1,0,1
-0.076,1797,1,1,0,1
-0.074,1973,1,1,0,1
-0.07199999999999999,2095,1,1,0,1
-0.07000000000000001,2175,1,1,0,1
-0.068,2239,1,1,0,1
-0.066,2302,1,1,0,1
-0.064,2375,1,1,0,1
-0.062,2453,1,1,0,1
-0.06,2521,1,1,0,1
-0.058,2559,1,1,0,1
-0.056,2572,1,1,0,1
-0.054,2565,1,1,0,1
-0.052,2539,1,1,0,1
-0.05,2508,1,1,0,1
-0.048,2486,1,1,0,1
-0.046,2481,1,1,0,1
-0.044,2486,1,1,0,1
-0.042,2491,1,1,0,1
-0.04,2490,1,1,0,1
-0.038,2474,1,1,0,1
-0.036,2441,1,1,0,1
-0.034,2402,1,1,0,1
-0.032,2379,1,1,0,1
-0.03,2389,1,1,0,1
-0.028,2425,1,1,0,1
-0.026,2462,1,1,0,1
-0.024,2487,1,1,0,1
-0.022,2498,1,1,0,1
-0.02,2501,1,1,0,1
-0.018,2507,1,1,0,1
-0.016,2533,1,1,0,1
-0.014,2587,1,1,0,1
-0.012,2652,1,1,0,1
-0.01,2715,1,1,0,1
-0.008,2758,1,1,0,1
-0.006,2762,1,1,0,1
-0.004,2741,1,1,0,1
-0.002,2726,1,1,0,1
0,2742,1,1,0,1
0.002,2802,1,1,0,1
0.004,2893,1,1,0,1
0.006,2999,1,1,0,1
0.008,3103,1,1,0,1
0.01,3186,1,1,0,1
0.012,3234,1,1,0,1
0.014,3244,1,1,0,1
0.016,3237,1,1,0,1
0.018,3229,1,1,0,1
0.02,3229,1,1,0,1
0.022,3225,1,1,0,1
0.024,3197,1,1,0,1
0.026,3146,1,1,0,1
0.028,3065,1,1,0,1
0.03,2978,1,1,0,1
0.032,2895,1,1,0,1
0.034,2849,1,1,0,1
0.036,2843,1,1,0,1
0.038,2868,1,1,0,1
0.04,2893,1,1,0,1
0.042,2901,1,1,0,1
0.044,2885,1,1,0,1
0.046,2845,1,1,0,1
0.048,2805,1,1,0,1
0.05,2794,1,1,0,1
0.052,2813,1,1,0,1
0.054,2860,1,1,0,1
0.056,2919,1,1,0,1
0.058,2971,1,1,0,1
0.06,3005,1,1,0,1
0.062,3014,1,1,0,1
0.064,3003,1,1,0,1
0.066,2991,1,1,0,1
0.068,2997,1,1,0,1
0.07000000000000001,3012,1,1,0,1
0.07199999999999999,3023,1,1,0,1
0.074,3022,1,1,0,1
0.076,2998,1,1,0,1
0.078,2943,1,1,0,1
0.08,2861,1,1,0,1
0.082,2778,1,1,0,1
0.08400000000000001,2718,1,1,0,1
0.08599999999999999,2694,1,1,0,1
0.08799999999999999,2701,1,1,0,1
0.09,2723,1,1,0,1
0.092,2742,1,1,0,1
0.094,2749,1,1,0,1
0.096,2751,1,1,0,1
0.098,2757,1,1,0,1
0.1,2779,1,1,0,1
0.102,2823,1,1,0,1
0.104,2883,1,1,0,1
0.106,2943,1,1,0,1
0.108,2983,1,1,0,1
0.11,2982,1,1,0,1
0.112,2943,1,1,0,1
0.114,2885,1,1,0,1
0.116,2823,1,1,0,1
0.118,2783,1,1,0,1
0.12,2778,1,1,0,1
0.122,2811,1,1,0,1
0.124,2873,1,1,0,1
0.126,2927,1,1,0,1
0.128,2938,1,1,0,1
0.13,2916,1,1,0,1
0.132,2875,1,1,0,1
0.134,2831,1,1,0,1
0.136,2781,1,1,0,1
0.138,2727,1,1,0,1
0.14,2662,1,1,0,1
0.142,2570,1,1,0,1
0.144,2445,1,1,0,1
0.146,2302,1,1,0,1
0.148,2171,1,1,0,1
0.15,2067,1,1,0,1
0.152,1993,1,1,0,1
0.154,1934,1,1,0,1
0.156,1894,1,1,0,1
0.158,1871,1,1,0,1
0.16,1852,1,1,0,1
0.162,1826,1,1,0,1
0.164,1794,1,1,0,1
0.166,1762,1,1,0,1
0.168,1738,1,1,0,1
0.17,1713,1,1,0,1
0.172,1677,1,1,0,1
0.174,1626,1,1,0,1
0.176,1558,1,1,0,1
0.178,1460,1,1,0,1
0.18,1348,1,1,0,1
0.182,1245,1,1,0,1
0.184,1165,1,1,0,1
0.186,1115,1,1,0,1
0.188,1091,1,1,0,1
0.19,1082,1,1,0,1
0.192,1077,1,1,0,1
0.194,1055,1,1,0,1
0.196,1011,1,1,0,1
0.198,965,1,1,0,1
0.2,934,1,1,0,1
0.202,922,1,1,0,1
0.204,922,1,1,0,1
0.206,927,1,1,0,1
0.208,921,1,1,0,1
0.21,890,1,1,0,1
0.212,835,1,1,0,1
0.214,771,1,1,0,1
0.216,709,1,1,0,1
0.218,662,1,1,0,1
0.22,643,1,1,0,1
0.222,653,1,1,0,1
0.224,680,1,1,0,1
0.226,715,1,1,0,1
0.228,752,1,1,0,1
0.23,794,1,1,0,1
0.232,851,1,1,0,1
0.234,932,1,1,0,1
0.236,1036,1,1,0,1
0.238,1146,1,1,0,1
0.24,1247,1,1,0,1
0.242,1319,1,1,0,1
0.244,1357,1,1,0,1
0.246,1362,1,1,0,1
0.248,1346,1,1,0,1
0.25,1335,1,1,0,1
0.252,1353,1,1,0,1
0.254,1396,1,1,0,1
0.256,1455,1,1,0,1
0.258,1505,1,1,0,1
0.26,1521,1,1,0,1
0.262,1490,1,1,0,1
0.264,1430,1,1,0,1
0.266,1381,1,1,0,1
0.268,1366,1,1,0,1
0.27,1383,1,1,0,1
0.272,1417,1,1,0,1
0.274,1439,1,1,0,1
0.276,1445,1,1,0,1
0.278,1427,1,1,0,1
0.28,1393,1,1,0,1
0.282,1371,1,1,0,1
0.284,1378,1,1,0,1
0.286,1399,1,1,0,1
0.288,1422,1,1,0,1
0.29,1430,1,1,0,1
0.292,1419,1,1,0,1
0.294,1394,1,1,0,1
0.296,1353,1,1,0,1
0.298,1309,1,1,0,1
0.3,1277,1,1,0,1
0.302,1279,1,1,0,1
0.304,1322,1,1,0,1
0.306,1389,1,1,0,1
0.308,1463,1,1,0,1
0.31,1519,1,1,0,1
0.312,1554,1,1,0,1
0.314,1565,1,1,0,1
0.316,1571,1,1,0,1
0.318,1590,1,1,0,1
0.32,1637,1,1,0,1
0.322,1702,1,1,0,1
0.324,1745,1,1,0,1
0.326,1743,1,1,0,1
0.328,1718,1,1,0,1
0.33,1711,1,1,0,1
0.332,1754,1,1,0,1
0.334,1859,1,1,0,1
0.336,2007,1,1,0,1
0.338,2146,1,1,0,1
0.34,2217,1,1,0,1
0.342,2213,1,1,0,1
0.344,2153,1,1,0,1
0.346,2070,1,1,0,1
0.348,1989,1,1,0,1
0.35,1931,1,1,0,1
0.352,1889,1,1,0,1
0.354,1881,1,1,0,1
0.356,1913,1,1,0,1
0.358,1965,1,1,0,1
0.36,2013,1,1,0,1
0.362,2035,1,1,0,1
0.364,2037,1,1,0,1
0.366,2045,1,1,0,1
0.368,2082,1,1,0,1
0.37,2141,1,1,0,1
0.372,2206,1,1,0,1
0.374,2253,1,1,0,1
0.376,2265,1,1,0,1
0.378,2249,1,1,0,1
0.38,2218,1,1,0,1
0.382,2197,1,1,0,1
0.384,2200,1,1,0,1
0.386,2227,1,1,0,1
0.388,2257,1,1,0,1
0.39,2290,1,1,0,1
0.392,2326,1,1,0,1
0.394,2349,1,1,0,1
0.396,2319,1,1,0,1
0.398,2219,1,1,0,1
0.4,2091,1,1,0,1
0.402,1958,1,1,0,1
0.404,1850,1,1,0,1
0.406,1789,1,1,0,1
0.408,1741,1,1,0,1
0.41,1674,1,1,0,1
0.412,1581,1,1,0,1
0.414,1486,1,1,0,1
0.416,1439,1,1,0,1
0.418,1459,1,1,0,1
0.42,1517,1,1,0,1
0.422,1590,1,1,0,1
0.424,1657,1,1,0,1
0.426,1703,1,1,0,1
0.428,1735,1,1,0,1
0.43,1751,1,1,0,1
0.432,1769,1,1,0,1
0.434,1802,1,1,0,1
0.436,1851,1,1,0,1
0.438,1900,1,1,0,1
0.44,1935,1,1,0,1
0.442,1945,1,1,0,1
0.444,1917,1,1,0,1
0.446,1854,1,1,0,1
0.448,1774,1,1,0,1
0.45,1705,1,1,0,1
0.452,1663,1,1,0,1
0.454,1657,1,1,0,1
0.456,1669,1,1,0,1
0.458,1681,1,1,0,1
0.46,1677,1,1,0,1
0.462,1653,1,1,0,1
0.464,1627,1,1,0,1
0.466,1623,1,1,0,1
0.468,1653,1,1,0,1
0.47,1698,1,1,0,1
0.472,1743,1,1,0,1
0.474,1775,1,1,0,1
0.476,1781,1,1,0,1
0.478,1755,1,1,0,1
0.48,1708,1,1,0,1
0.482,1662,1,1,0,1
0.484,1636,1,1,0,1
0.486,1643,1,1,0,1
0.488,1681,1,1,0,1
0.49,1722,1,1,0,1
0.492,1756,1,1,0,1
0.494,1769,1,1,0,1
0.496,1765,1,1,0,1
0.498,1769,1,1,0,1
0.5,1818,1,1,0,1
0.502,1924,1,1,0,1
0.504,2093,1,1,0,1
0.506,2315,1,1,0,1
0.508,2575,1,1,0,1
0.51,2859,1,1,0,1
0.512,3170,1,1,0,1
0.514,3509,1,1,0,1
0.516,3890,1,1,0,1
0.518,4053,1,1,0,1
0.52,4061,1,1,0,1
0.522,4061,1,1,0,1
0.524,4061,1,1,0,1
0.526,4061,1,1,0,1
0.528,4061,1,1,0,1
0.53,4061,1,1,0,1
0.532,4061,1,1,0,1
0.534,4051,1,1,0,1
0.536,3909,1,1,0,1
0.538,3625,1,1,0,1
0.54,3195,1,1,0,1
0.542,2646,1,1,0,1
0.544,2021,1,1,0,1
0.546,1375,1,1,0,1
0.548,766,1,1,0,1
0.55,230,1,1,0,1
0.552,13,1,1,0,1
0.554,0,1,1,0,1
0.556,0,1,1,0,1
0.5580000000000001,0,1,1,0,1
0.5600000000000001,0,1,1,0,1
0.5620000000000001,0,1,1,0,1
0.5639999999999999,0,1,1,0,1
0.5659999999999999,0,1,1,0,1
0.5679999999999999,0,1,1,0,1
0.57,0,1,1,0,1
0.572,0,1,1,0,1
0.574,0,1,1,0,1
0.576,0,1,1,0,1
0.578,0,1,1,0,1
0.58,0,1,1,0,1
0.582,21,1,1,0,1
0.584,139,1,1,0,1
0.586,335,1,1,0,1
0.588,581,1,1,0,1
0.59,841,1,1,0,1
0.592,1086,1,1,0,1
0.594,1295,1,1,0,1
0.596,1465,1,1,0,1
0.598,1612,1,1,0,1
0.6,1755,1,1,0,1
0.602,1903,1,1,0,1
0.604,2054,1,1,0,1
0.606,2189,1,1,0,1
0.608,2290,1,1,0,1
0.61,2347,1,1,0,1
0.612,2359,1,1,0,1
0.614,2338,1,1,0,1
0.616,2307,1,1,0,1
0.618,2293,1,1,0,1
0.62,2313,1,1,0,1
0.622,2355,1,1,0,1
0.624,2399,1,1,0,1
0.626,2425,1,1,0,1
0.628,2422,1,1,0,1
0.63,2388,1,1,0,1
0.632,2341,1,1,0,1
0.634,2297,1,1,0,1
0.636,2282,1,1,0,1
0.638,2295,1,1,0,1
0.64,2332,1,1,0,1
0.642,2371,1,1,0,1
0.644,2389,1,1,0,1
0.646,2379,1,1,0,1
0.648,2347,1,1,0,1
0.65,2324,1,1,0,1
0.652,2323,1,1,0,1
0.654,2343,1,1,0,1
0.656,2381,1,1,0,1
0.658,2421,1,1,0,1
0.66,2455,1,1,0,1
0.662,2461,1,1,0,1
0.664,2437,1,1,0,1
0.666,2398,1,1,0,1
0.668,2363,1,1,0,1
0.67,2335,1,1,0,1
0.672,2311,1,1,0,1
0.674,2281,1,1,0,1
0.676,2255,1,1,0,1
0.678,2239,1,1,0,1
0.68,2231,1,1,0,1
0.6820000000000001,2246,1,1,0,1
0.6840000000000001,2291,1,1,0,1
0.6860000000000001,2356,1,1,0,1
0.6879999999999999,2423,1,1,0,1
0.6899999999999999,2477,1,1,0,1
0.6919999999999999,2507,1,1,0,1
0.694,2505,1,1,0,1
0.696,2475,1,1,0,1
0.698,2429,1,1,0,1
0.7,2383,1,1,0,1
0.702,2377,1,1,0,1
0.704,2403,1,1,0,1
0.706,2450,1,1,0,1
0.708,2499,1,1,0,1
0.71,2521,1,1,0,1
0.712,2495,1,1,0,1
0.714,2437,1,1,0,1
0.716,2367,1,1,0,1
0.718,2319,1,1,0,1
0.72,2291,1,1,0,1
0.722,2269,1,1,0,1
0.724,2226,1,1,0,1
0.726,2154,1,1,0,1
0.728,2052,1,1,0,1
0.73,1939,1,1,0,1
0.732,1858,1,1,0,1
0.734,1822,1,1,0,1
0.736,1820,1,1,0,1
0.738,1845,1,1,0,1
0.74,1899,1,1,0,1
0.742,1933,1,1,0,1
0.744,1949,1,1,0,1
0.746,1972,1,1,0,1
0.748,1989,1,1,0,1
0.75,2005,1,1,0,1
0.752,2029,1,1,0,1
0.754,2079,1,1,0,1
0.756,2149,1,1,0,1
0.758,2242,1,1,0,1
0.76,2333,1,1,0,1
0.762,2399,1,1,0,1
0.764,2427,1,1,0,1
0.766,2444,1,1,0,1
0.768,2471,1,1,0,1
0.77,2501,1,1,0,1
0.772,2530,1,1,0,1
0.774,2541,1,1,0,1
0.776,2530,1,1,0,1
0.778,2492,1,1,0,1
0.78,2442,1,1,0,1
0.782,2398,1,1,0,1
0.784,2379,1,1,0,1
0.786,2383,1,1,0,1
0.788,2397,1,1,0,1
0.79,2404,1,1,0,1
0.792,2391,1,1,0,1
0.794,2357,1,1,0,1
0.796,2297,1,1,0,1
0.798,2249,1,1,0,1
0.8,2243,1,1,0,1
0.802,2279,1,1,0,1
0.804,2348,1,1,0,1
0.806,2434,1,1,0,1
0.8080000000000001,2522,1,1,0,1
0.8100000000000001,2599,1,1,0,1
0.8120000000000001,2642,1,1,0,1
0.8139999999999999,2636,1,1,0,1
0.8159999999999999,2593,1,1,0,1
0.8179999999999999,2531,1,1,0,1
0.82,2463,1,1,0,1
0.822,2394,1,1,0,1
0.824,2311,1,1,0,1
0.826,2211,1,1,0,1
0.828,2090,1,1,0,1
0.83,1950,1,1,0,1
0.832,1819,1,1,0,1
0.834,1718,1,1,0,1
0.836,1657,1,1,0,1
0.838,1629,1,1,0,1
0.84,1614,1,1,0,1
0.842,1594,1,1,0,1
0.844,1563,1,1,0,1
0.846,1523,1,1,0,1
0.848,1488,1,1,0,1
0.85,1477,1,1,0,1
0.852,1497,1,1,0,1
0.854,1546,1,1,0,1
0.856,1609,1,1,0,1
0.858,1666,1,1,0,1
0.86,1694,1,1,0,1
0.862,1689,1,1,0,1
0.864,1659,1,1,0,1
0.866,1634,1,1,0,1
0.868,1636,1,1,0,1
0.87,1661,1,1,0,1
0.872,1703,1,1,0,1
0.874,1747,1,1,0,1
0.876,1774,1,1,0,1
0.878,1769,1,1,0,1
0.88,1732,1,1,0,1
0.882,1689,1,1,0,1
0.884,1666,1,1,0,1
0.886,1677,1,1,0,1
0.888,1719,1,1,0,1
0.89,1777,1,1,0,1
0.892,1833,1,1,0,1
0.894,1879,1,1,0,1
0.896,1902,1,1,0,1
0.898,1906,1,1,0,1
0.9,1914,1,1,0,1
0.902,1945,1,1,0,1
0.904,1995,1,1,0,1
0.906,2056,1,1,0,1
0.908,2097,1,1,0,1
0.91,2098,1,1,0,1
0.912,2059,1,1,0,1
0.914,1987,1,1,0,1
0.916,1902,1,1,0,1
0.918,1823,1,1,0,1
0.92,1769,1,1,0,1
0.922,1748,1,1,0,1
0.924,1756,1,1,0,1
0.926,1766,1,1,0,1
0.928,1751,1,1,0,1
0.93,1718,1,1,0,1
0.9320000000000001,1690,1,1,0,1
0.9340000000000001,1687,1,1,0,1
0.9360000000000001,1717,1,1,0,1
0.9379999999999999,1783,1,1,0,1
0.9399999999999999,1860,1,1,0,1
0.9419999999999999,1910,1,1,0,1
0.944,1934,1,1,0,1
0.946,1926,1,1,0,1
0.948,1899,1,1,0,1
0.95,1881,1,1,0,1
0.952,1881,1,1,0,1
0.954,1906,1,1,0,1
0.956,1954,1,1,0,1
0.958,2005,1,1,0,1
0.96,2033,1,1,0,1
0.962,2022,1,1,0,1
0.964,1978,1,1,0,1
0.966,1932,1,1,0,1
0.968,1903,1,1,0,1
0.97,1903,1,1,0,1
0.972,1924,1,1,0,1
0.974,1941,1,1,0,1
0.976,1946,1,1,0,1
0.978,1929,1,1,0,1
0.98,1886,1,1,0,1
0.982,1837,1,1,0,1
0.984,1803,1,1,0,1
0.986,1794,1,1,0,1
0.988,1804,1,1,0,1
0.99,1819,1,1,0,1
0.992,1820,1,1,0,1
0.994,1791,1,1,0,1
0.996,1740,1,1,0,1
0.998,1685,1,1,0,1
1,1650,1,1,0,1
1.002,1644,1,1,0,1
1.004,1662,1,1,0,1
1.006,1697,1,1,0,1
1.008,1723,1,1,0,1
1.01,1733,1,1,0,1
1.012,1721,1,1,0,1
1.014,1691,1,1,0,1
1.016,1659,1,1,0,1
1.018,1646,1,1,0,1
1.02,1657,1,1,0,1
1.022,1687,1,1,0,1
1.024,1718,1,1,0,1
1.026,1735,1,1,0,1
1.028,1729,1,1,0,1
1.03,1702,1,1,0,1
1.032,1671,1,1,0,1
1.034,1653,1,1,0,1
1.036,1662,1,1,0,1
1.038,1690,1,1,0,1
1.04,1718,1,1,0,1
1.042,1743,1,1,0,1
1.044,1757,1,1,0,1
1.046,1766,1,1,0,1
1.048,1782,1,1,0,1
1.05,1806,1,1,0,1
1.052,1842,1,1,0,1
1.054,1889,1,1,0,1
1.056,1929,1,1,0,1
1.058,1939,1,1,0,1
1.06,1911,1,1,0,1
1.062,1859,1,1,0,1
1.064,1809,1,1,0,1
1.066,1781,1,1,0,1
1.068,1781,1,1,0,1
1.07,1803,1,1,0,1
1.072,1830,1,1,0,1
1.074,1841,1,1,0,1
1.076,1827,1,1,0,1
1.078,1780,1,1,0,1
1.08,1713,1,1,0,1
1.082,1647,1,1,0,1
1.084,1598,1,1,0,1
1.086,1564,1,1,0,1
1.088,1541,1,1,0,1
1.09,1519,1,1,0,1
1.092,1498,1,1,0,1
1.094,1474,1,1,0,1
1.096,1442,1,1,0,1
1.098,1417,1,1,0,1
1.1,1406,1,1,0,1
1.102,1423,1,1,0,1
1.104,1476,1,1,0,1
1.106,1545,1,1,0,1
1.108,1611,1,1,0,1
1.11,1671,1,1,0,1
1.112,1721,1,1,0,1
1.114,1750,1,1,0,1
1.116,1777,1,1,0,1
1.118,1821,1,1,0,1
1.12,1877,1,1,0,1
1.122,1918,1,1,0,1
1.124,1925,1,1,0,1
1.126,1893,1,1,0,1
1.128,1837,1,1,0,1
1.13,1762,1,1,0,1
1.132,1706,1,1,0,1
1.134,1672,1,1,0,1
1.136,1638,1,1,0,1
1.138,1604,1,1,0,1
1.14,1581,1,1,0,1
1.142,1579,1,1,0,1
1.144,1585,1,1,0,1
1.146,1581,1,1,0,1
1.148,1565,1,1,0,1
1.15,1550,1,1,0,1
1.152,1561,1,1,0,1
1.154,1601,1,1,0,1
1.156,1659,1,1,0,1
1.158,1714,1,1,0,1
1.16,1746,1,1,0,1
1.162,1773,1,1,0,1
1.164,1837,1,1,0,1
1.166,1977,1,1,0,1
1.168,2222,1,1,0,1
1.17,2555,1,1,0,1
1.172,2933,1,1,0,1
1.174,3326,1,1,0,1
1.176,3735,1,1,0,1
1.178,4031,1,1,0,1
1.18,4059,1,1,0,1
1.182,4061,1,1,0,1
1.184,4061,1,1,0,1
1.186,4062,1,1,0,1
1.188,4061,1,1,0,1
1.19,4061,1,1,0,1
1.192,4061,1,1,0,1
1.194,4061,1,1,0,1
1.196,4059,1,1,0,1
1.198,3903,1,1,0,1
1.2,3595,1,1,0,1
1.202,3153,1,1,0,1
1.204,2609,1,1,0,1
1.206,2015,1,1,0,1
1.208,1426,1,1,0,1
1.21,876,1,1,0,1
1.212,381,1,1,0,1
1.214,37,1,1,0,1
1.216,2,1,1,0,1
1.218,1,1,1,0,1
1.22,0,1,1,0,1
1.222,0,1,1,0,1
1.224,0,1,1,0,1
1.226,0,1,1,0,1
1.228,0,1,1,0,1
1.23,0,1,1,0,1
1.232,0,1,1,0,1
1.234,0,1,1,0,1
1.236,0,1,1,0,1
1.238,0,1,1,0,1
1.24,14,1,1,0,1
1.242,98,1,1,0,1
1.244,232,1,1,0,1
1.246,410,1,1,0,1
1.248,622,1,1,0,1
1.25,865,1,1,0,1
1.252,1127,1,1,0,1
1.254,1394,1,1,0,1
1.256,1659,1,1,0,1
1.258,1907,1,1,0,1
1.26,2123,1,1,0,1
1.262,2295,1,1,0,1
1.264,2427,1,1,0,1
1.266,2532,1,1,0,1
1.268,2627,1,1,0,1
1.27,2715,1,1,0,1
1.272,2793,1,1,0,1
1.274,2839,1,1,0,1
1.276,2835,1,1,0,1
1.278,2781,1,1,0,1
1.28,2699,1,1,0,1
1.282,2613,1,1,0,1
1.284,2547,1,1,0,1
1.286,2522,1,1,0,1
1.288,2531,1,1,0,1
1.29,2557,1,1,0,1
1.292,2581,1,1,0,1
1.294,2579,1,1,0,1
1.296,2554,1,1,0,1
1.298,2525,1,1,0,1
1.3,2516,1,1,0,1
1.302,2535,1,1,0,1
1.304,2579,1,1,0,1
1.306,2629,1,1,0,1
1.308,2674,1,1,0,1
1.31,2703,1,1,0,1
1.312,2709,1,1,0,1
1.314,2699,1,1,0,1
1.316,2686,1,1,0,1
1.318,2692,1,1,0,1
1.32,2711,1,1,0,1
1.322,2741,1,1,0,1
1.324,2764,1,1,0,1
1.326,2774,1,1,0,1
1.328,2765,1,1,0,1
1.33,2743,1,1,0,1
1.332,2731,1,1,0,1
1.334,2755,1,1,0,1
1.336,2814,1,1,0,1
1.338,2894,1,1,0,1
1.34,2962,1,1,0,1
1.342,2991,1,1,0,1
1.344,2975,1,1,0,1
1.346,2909,1,1,0,1
1.348,2823,1,1,0,1
1.35,2743,1,1,0,1
1.352,2693,1,1,0,1
1.354,2665,1,1,0,1
1.356,2647,1,1,0,1
1.358,2622,1,1,0,1
1.36,2581,1,1,0,1
1.362,2517,1,1,0,1
1.364,2445,1,1,0,1
1.366,2391,1,1,0,1
1.368,2363,1,1,0,1
1.37,2358,1,1,0,1
1.372,2370,1,1,0,1
1.374,2379,1,1,0,1
1.376,2371,1,1,0,1
1.378,2346,1,1,0,1
1.38,2316,1,1,0,1
1.382,2294,1,1,0,1
1.384,2310,1,1,0,1
1.386,2357,1,1,0,1
1.388,2421,1,1,0,1
1.39,2490,1,1,0,1
1.392,2546,1,1,0,1
1.394,2580,1,1,0,1
1.396,2595,1,1,0,1
1.398,2604,1,1,0,1
1.4,2627,1,1,0,1
1.402,2666,1,1,0,1
1.404,2722,1,1,0,1
1.406,2778,1,1,0,1
1.408,2822,1,1,0,1
1.41,2835,1,1,0,1
1.412,2819,1,1,0,1
1.414,2779,1,1,0,1
1.416,2739,1,1,0,1
1.418,2718,1,1,0,1
1.42,2718,1,1,0,1
1.422,2732,1,1,0,1
1.424,2748,1,1,0,1
1.426,2749,1,1,0,1
1.428,2718,1,1,0,1
1.43,2659,1,1,0,1
1.432,2589,1,1,0,1
1.434,2539,1,1,0,1
1.436,2521,1,1,0,1
1.438,2521,1,1,0,1
1.44,2522,1,1,0,1
1.442,2503,1,1,0,1
1.444,2457,1,1,0,1
1.446,2387,1,1,0,1
1.448,2318,1,1,0,1
1.45,2271,1,1,0,1
1.452,2247,1,1,0,1
1.454,2249,1,1,0,1
1.456,2277,1,1,0,1
1.458,2315,1,1,0,1
1.46,2346,1,1,0,1
1.462,2350,1,1,0,1
1.464,2329,1,1,0,1
1.466,2297,1,1,0,1
1.468,2276,1,1,0,1
1.47,2279,1,1,0,1
1.472,2314,1,1,0,1
1.474,2354,1,1,0,1
1.476,2375,1,1,0,1
1.478,2359,1,1,0,1
1.48,2289,1,1,0,1
1.482,2187,1,1,0,1
1.484,2088,1,1,0,1
1.486,2020,1,1,0,1
1.488,1995,1,1,0,1
1.49,1988,1,1,0,1
1.492,1961,1,1,0,1
1.494,1908,1,1,0,1
1.496,1847,1,1,0,1
1.498,1771,1,1,0,1
1.5,1715,1,1,0,1
1.502,1700,1,1,0,1
1.504,1702,1,1,0,1
1.506,1722,1,1,0,1
1.508,1741,1,1,0,1
1.51,1755,1,1,0,1
1.512,1753,1,1,0,1
1.514,1730,1,1,0,1
1.516,1703,1,1,0,1
1.518,1694,1,1,0,1
1.52,1705,1,1,0,1
1.522,1724,1,1,0,1
1.524,1732,1,1,0,1
1.526,1714,1,1,0,1
1.528,1661,1,1,0,1
1.53,1587,1,1,0,1
1.532,1507,1,1,0,1
1.534,1449,1,1,0,1
1.536,1441,1,1,0,1
1.538,1475,1,1,0,1
1.54,1513,1,1,0,1
1.542,1531,1,1,0,1
1.544,1526,1,1,0,1
1.546,1495,1,1,0,1
1.548,1453,1,1,0,1
1.55,1441,1,1,0,1
1.552,1493,1,1,0,1
1.554,1610,1,1,0,1
1.556,1757,1,1,0,1
1.558,1906,1,1,0,1
1.56,2020,1,1,0,1
1.562,2079,1,1,0,1
1.564,2087,1,1,0,1
1.566,2071,1,1,0,1
1.568,2058,1,1,0,1
1.57,2057,1,1,0,1
1.572,2053,1,1,0,1
1.574,2029,1,1,0,1
1.576,1982,1,1,0,1
1.578,1916,1,1,0,1
1.58,1843,1,1,0,1
1.582,1785,1,1,0,1
1.584,1763,1,1,0,1
1.586,1782,1,1,0,1
1.588,1831,1,1,0,1
1.59,1885,1,1,0,1
1.592,1924,1,1,0,1
1.594,1927,1,1,0,1
1.596,1894,1,1,0,1
1.598,1844,1,1,0,1
1.6,1798,1,1,0,1
1.602,1768,1,1,0,1
1.604,1757,1,1,0,1
1.606,1753,1,1,0,1
1.608,1741,1,1,0,1
1.61,1718,1,1,0,1
1.612,1683,1,1,0,1
1.614,1643,1,1,0,1
1.616,1622,1,1,0,1
1.618,1628,1,1,0,1
1.62,1657,1,1,0,1
1.622,1703,1,1,0,1
1.624,1735,1,1,0,1
1.626,1743,1,1,0,1
1.628,1715,1,1,0,1
1.63,1659,1,1,0,1
1.632,1606,1,1,0,1
1.634,1588,1,1,0,1
1.636,1623,1,1,0,1
1.638,1701,1,1,0,1
1.64,1802,1,1,0,1
1.642,1896,1,1,0,1
1.644,1965,1,1,0,1
1.646,2012,1,1,0,1
1.648,2047,1,1,0,1
1.65,2089,1,1,0,1
1.652,2140,1,1,0,1
1.654,2197,1,1,0,1
1.656,2257,1,1,0,1
1.658,2313,1,1,0,1
1.66,2348,1,1,0,1
1.662,2365,1,1,0,1
1.664,2375,1,1,0,1
1.666,2382,1,1,0,1
1.668,2388,1,1,0,1
1.67,2396,1,1,0,1
1.672,2420,1,1,0,1
1.674,2439,1,1,0,1
1.676,2427,1,1,0,1
1.678,2385,1,1,0,1
1.68,2313,1,1,0,1
1.682,2234,1,1,0,1
1.684,2171,1,1,0,1
1.686,2141,1,1,0,1
1.688,2139,1,1,0,1
1.69,2154,1,1,0,1
1.692,2167,1,1,0,1
1.694,2172,1,1,0,1
1.696,2162,1,1,0,1
1.698,2145,1,1,0,1
1.7,2138,1,1,0,1
1.702,2153,1,1,0,1
1.704,2190,1,1,0,1
1.706,2234,1,1,0,1
1.708,2266,1,1,0,1
1.71,2275,1,1,0,1
1.712,2261,1,1,0,1
1.714,2228,1,1,0,1
1.716,2191,1,1,0,1
1.718,2171,1,1,0,1
1.72,2171,1,1,0,1
1.722,2189,1,1,0,1
1.724,2209,1,1,0,1
1.726,2205,1,1,0,1
1.728,2173,1,1,0,1
1.73,2117,1,1,0,1
1.732,2057,1,1,0,1
1.734,2007,1,1,0,1
1.736,1983,1,1,0,1
1.738,1979,1,1,0,1
1.74,1974,1,1,0,1
1.742,1951,1,1,0,1
1.744,1902,1,1,0,1
1.746,1831,1,1,0,1
1.748,1750,1,1,0,1
1.75,1679,1,1,0,1
1.752,1628,1,1,0,1
1.754,1598,1,1,0,1
1.756,1580,1,1,0,1
1.758,1557,1,1,0,1
1.76,1515,1,1,0,1
1.762,1456,1,1,0,1
1.764,1395,1,1,0,1
1.766,1347,1,1,0,1
1.768,1326,1,1,0,1
1.77,1331,1,1,0,1
1.772,1361,1,1,0,1
1.774,1405,1,1,0,1
1.776,1449,1,1,0,1
1.778,1479,1,1,0,1
1.78,1492,1,1,0,1
1.782,1497,1,1,0,1
1.784,1511,1,1,0,1
1.786,1547,1,1,0,1
1.788,1597,1,1,0,1
1.79,1644,1,1,0,1
1.792,1669,1,1,0,1
1.794,1655,1,1,0,1
1.796,1609,1,1,0,1
1.798,1545,1,1,0,1
1.8,1489,1,1,0,1
1.802,1457,1,1,0,1
1.804,1453,1,1,0,1
1.806,1467,1,1,0,1
1.808,1484,1,1,0,1
1.81,1487,1,1,0,1
1.812,1461,1,1,0,1
1.814,1436,1,1,0,1
1.816,1439,1,1,0,1
1.818,1469,1,1,0,1
1.82,1524,1,1,0,1
1.822,1597,1,1,0,1
1.824,1668,1,1,0,1
1.826,1726,1,1,0,1
1.828,1779,1,1,0,1
1.83,1829,1,1,0,1
1.832,1905,1,1,0,1
1.834,2037,1,1,0,1
1.836,2233,1,1,0,1
1.838,2477,1,1,0,1
1.84,2770,1,1,0,1
1.842,3101,1,1,0,1
1.844,3445,1,1,0,1
1.846,3790,1,1,0,1
1.848,4037,1,1,0,1
1.85,4061,1,1,0,1
1.852,4062,1,1,0,1
1.854,4061,1,1,0,1
1.856,4061,1,1,0,1
1.858,4022,1,1,0,1
1.86,3823,1,1,0,1
1.862,3484,1,1,0,1
1.864,3005,1,1,0,1
1.866,2405,1,1,0,1
1.868,1725,1,1,0,1
1.87,1042,1,1,0,1
1.872,432,1,1,0,1
1.874,38,1,1,0,1
1.876,1,1,1,0,1
1.878,0,1,1,0,1
1.88,0,1,1,0,1
1.882,0,1,1,0,1
1.884,0,1,1,0,1
1.886,0,1,1,0,1
1.888,0,1,1,0,1
1.89,0,1,1,0,1
1.892,0,1,1,0,1
1.894,0,1,1,0,1
1.896,0,1,1,0,1
1.898,0,1,1,0,1
1.9,0,1,1,0,1
1.902,0,1,1,0,1
1.904,0,1,1,0,1
1.906,10,1,1,0,1
1.908,96,1,1,0,1
1.91,226,1,1,0,1
1.912,390,1,1,0,1
1.914,577,1,1,0,1
1.916,796,1,1,0,1
1.918,1046,1,1,0,1
1.92,1313,1,1,0,1
1.922,1571,1,1,0,1
1.924,1786,1,1,0,1
1.926,1947,1,1,0,1
1.928,2066,1,1,0,1
1.93,2156,1,1,0,1
1.932,2251,1,1,0,1
1.934,2402,1,1,0,1
1.936,2599,1,1,0,1
1.938,2786,1,1,0,1
1.94,2940,1,1,0,1
1.942,3053,1,1,0,1
1.944,3125,1,1,0,1
1.946,3151,1,1,0,1
1.948,3139,1,1,0,1
1.95,3092,1,1,0,1
1.952,3026,1,1,0,1
1.954,2965,1,1,0,1
1.956,2909,1,1,0,1
1.958,2828,1,1,0,1
1.96,2715,1,1,0,1
1.962,2596,1,1,0,1
1.964,2487,1,1,0,1
1.966,2415,1,1,0,1
1.968,2411,1,1,0,1
1.97,2465,1,1,0,1
1.972,2541,1,1,0,1
1.974,2612,1,1,0,1
1.976,2645,1,1,0,1
1.978,2642,1,1,0,1
1.98,2614,1,1,0,1
1.982,2579,1,1,0,1
1.984,2554,1,1,0,1
1.986,2559,1,1,0,1
1.988,2595,1,1,0,1
1.99,2644,1,1,0,1
1.992,2686,1,1,0,1
1.994,2708,1,1,0,1
1.996,2700,1,1,0,1
1.998,2662,1,1,0,1
2,2612,1,1,0,1
2.002,2574,1,1,0,1
2.004,2553,1,1,0,1
2.006,2554,1,1,0,1
2.008,2564,1,1,0,1
2.01,2555,1,1,0,1
2.012,2534,1,1,0,1
2.014,2499,1,1,0,1
2.016,2475,1,1,0,1
2.018,2483,1,1,0,1
2.02,2527,1,1,0,1
2.022,2621,1,1,0,1
2.024,2735,1,1,0,1
2.026,2844,1,1,0,1
2.028,2929,1,1,0,1
2.03,2987,1,1,0,1
2.032,3019,1,1,0,1
2.034,3035,1,1,0,1
2.036,3043,1,1,0,1
2.038,3045,1,1,0,1
2.04,3034,1,1,0,1
2.042,3001,1,1,0,1
2.044,2941,1,1,0,1
2.046,2866,1,1,0,1
2.048,2786,1,1,0,1
2.05,2719,1,1,0,1
2.052,2677,1,1,0,1
2.054,2655,1,1,0,1
2.056,2658,1,1,0,1
2.058,2662,1,1,0,1
2.06,2650,1,1,0,1
2.062,2604,1,1,0,1
2.064,2534,1,1,0,1
2.066,2470,1,1,0,1
2.068,2442,1,1,0,1
2.07,2467,1,1,0,1
2.072,2531,1,1,0,1
2.074,2604,1,1,0,1
2.076,2652,1,1,0,1
2.078,2670,1,1,0,1
2.08,2665,1,1,0,1
2.082,2666,1,1,0,1
2.084,2703,1,1,0,1
2.086,2779,1,1,0,1
2.088,2877,1,1,0,1
2.09,2973,1,1,0,1
2.092,3043,1,1,0,1
2.094,3081,1,1,0,1
2.096,3079,1,1,0,1
2.098,3051,1,1,0,1
2.1,3033,1,1,0,1
2.102,3033,1,1,0,1
2.104,3049,1,1,0,1
2.106,3069,1,1,0,1
2.108,3079,1,1,0,1
2.11,3051,1,1,0,1
2.112,2985,1,1,0,1
2.114,2884,1,1,0,1
2.116,2779,1,1,0,1
2.118,2693,1,1,0,1
2.12,2635,1,1,0,1
2.122,2601,1,1,0,1
2.124,2578,1,1,0,1
2.126,2548,1,1,0,1
2.128,2494,1,1,0,1
2.13,2422,1,1,0,1
2.132,2350,1,1,0,1
2.134,2303,1,1,0,1
2.136,2300,1,1,0,1
2.138,2325,1,1,0,1
2.14,2363,1,1,0,1
2.142,2396,1,1,0,1
2.144,2410,1,1,0,1
2.146,2407,1,1,0,1
2.148,2385,1,1,0,1
2.15,2362,1,1,0,1
2.152,2351,1,1,0,1
2.154,2350,1,1,0,1
2.156,2338,1,1,0,1
2.158,2300,1,1,0,1
2.16,2245,1,1,0,1
2.162,2173,1,1,0,1
2.164,2093,1,1,0,1
2.166,2021,1,1,0,1
2.168,1977,1,1,0,1
2.17,1959,1,1,0,1
2.172,1961,1,1,0,1
2.174,1971,1,1,0,1
2.176,1969,1,1,0,1
2.178,1943,1,1,0,1
2.18,1891,1,1,0,1
2.182,1834,1,1,0,1
2.184,1791,1,1,0,1
2.186,1774,1,1,0,1
2.188,1775,1,1,0,1
2.19,1778,1,1,0,1
2.192,1763,1,1,0,1
2.194,1714,1,1,0,1
2.196,1630,1,1,0,1
2.198,1526,1,1,0,1
2.2,1427,1,1,0,1
2.202,1347,1,1,0,1
2.204,1284,1,1,0,1
2.206,1236,1,1,0,1
2.208,1191,1,1,0,1
2.21,1133,1,1,0,1
2.212,1069,1,1,0,1
2.214,1017,1,1,0,1
2.216,989,1,1,0,1
2.218,994,1,1,0,1
2.22,1030,1,1,0,1
2.222,1079,1,1,0,1
2.224,1121,1,1,0,1
2.226,1135,1,1,0,1
2.228,1116,1,1,0,1
2.23,1092,1,1,0,1
2.232,1081,1,1,0,1
2.234,1096,1,1,0,1
2.236,1142,1,1,0,1
2.238,1204,1,1,0,1
2.24,1260,1,1,0,1
2.242,1293,1,1,0,1
2.244,1289,1,1,0,1
2.246,1236,1,1,0,1
2.248,1158,1,1,0,1
2.25,1102,1,1,0,1
2.252,1084,1,1,0,1
2.254,1083,1,1,0,1
2.256,1083,1,1,0,1
2.258,1084,1,1,0,1
2.26,1074,1,1,0,1
2.262,1059,1,1,0,1
2.264,1037,1,1,0,1
2.266,1029,1,1,0,1
2.268,1051,1,1,0,1
2.27,1113,1,1,0,1
2.272,1225,1,1,0,1
2.274,1369,1,1,0,1
2.276,1515,1,1,0,1
2.278,1640,1,1,0,1
2.28,1719,1,1,0,1
2.282,1745,1,1,0,1
2.284,1727,1,1,0,1
2.286,1703,1,1,0,1
2.288,1686,1,1,0,1
2.29,1655,1,1,0,1
2.292,1599,1,1,0,1
2.294,1541,1,1,0,1
2.296,1477,1,1,0,1
2.298,1407,1,1,0,1
2.3,1358,1,1,0,1
2.302,1348,1,1,0,1
2.304,1359,1,1,0,1
2.306,1366,1,1,0,1
2.308,1354,1,1,0,1
2.31,1341,1,1,0,1
2.312,1363,1,1,0,1
2.314,1428,1,1,0,1
2.316,1527,1,1,0,1
2.318,1656,1,1,0,1
2.32,1810,1,1,0,1
2.322,1991,1,1,0,1
2.324,2165,1,1,0,1
2.326,2307,1,1,0,1
2.328,2397,1,1,0,1
2.33,2426,1,1,0,1
2.332,2415,1,1,0,1
2.334,2387,1,1,0,1
2.336,2340,1,1,0,1
2.338,2277,1,1,0,1
2.34,2209,1,1,0,1
2.342,2141,1,1,0,1
2.344,2089,1,1,0,1
2.346,2055,1,1,0,1
2.348,2035,1,1,0,1
2.35,2025,1,1,0,1
2.352,2026,1,1,0,1
2.354,2046,1,1,0,1
2.356,2073,1,1,0,1
2.358,2090,1,1,0,1
2.36,2079,1,1,0,1
2.362,2045,1,1,0,1
2.364,2010,1,1,0,1
2.366,1987,1,1,0,1
2.368,1975,1,1,0,1
2.37,1986,1,1,0,1
2.372,2007,1,1,0,1
2.374,2022,1,1,0,1
2.376,2015,1,1,0,1
2.378,1963,1,1,0,1
2.38,1899,1,1,0,1
2.382,1883,1,1,0,1
2.384,1961,1,1,0,1
2.386,2137,1,1,0,1
2.388,2359,1,1,0,1
2.39,2566,1,1,0,1
2.392,2710,1,1,0,1
2.394,2769,1,1,0,1
2.396,2731,1,1,0,1
2.398,2611,1,1,0,1
2.4,2435,1,1,0,1
2.402,2249,1,1,0,1
2.404,2069,1,1,0,1
2.406,1902,1,1,0,1
2.408,1749,1,1,0,1
2.41,1602,1,1,0,1
2.412,1459,1,1,0,1
2.414,1335,1,1,0,1
2.416,1255,1,1,0,1
2.418,1229,1,1,0,1
2.42,1254,1,1,0,1
2.422,1314,1,1,0,1
2.424,1386,1,1,0,1
2.426,1446,1,1,0,1
2.428,1467,1,1,0,1
2.43,1450,1,1,0,1
2.432,1422,1,1,0,1
2.434,1389,1,1,0,1
2.436,1350,1,1,0,1
2.438,1314,1,1,0,1
2.44,1274,1,1,0,1
2.442,1225,1,1,0,1
2.444,1167,1,1,0,1
2.446,1121,1,1,0,1
2.448,1101,1,1,0,1
2.45,1122,1,1,0,1
2.452,1187,1,1,0,1
2.454,1293,1,1,0,1
2.456,1428,1,1,0,1
2.458,1571,1,1,0,1
2.46,1701,1,1,0,1
2.462,1811,1,1,0,1
2.464,1907,1,1,0,1
2.466,2003,1,1,0,1
2.468,2111,1,1,0,1
2.47,2232,1,1,0,1
2.472,2363,1,1,0,1
2.474,2485,1,1,0,1
2.476,2570,1,1,0,1
2.478,2613,1,1,0,1
2.48,2612,1,1,0,1
2.482,2589,1,1,0,1
2.484,2589,1,1,0,1
2.486,2631,1,1,0,1
2.488,2725,1,1,0,1
2.49,2861,1,1,0,1
2.492,3013,1,1,0,1
2.494,3171,1,1,0,1
2.496,3349,1,1,0,1
2.498,3554,1,1,0,1
2.5,3814,1,1,0,1
2.502,4041,1,1,0,1
2.504,4061,1,1,0,1
2.506,4061,1,1,0,1
2.508,4061,1,1,0,1
2.51,4061,1,1,0,1
2.512,4061,1,1,0,1
2.514,4061,1,1,0,1
2.516,3978,1,1,0,1
2.518,3770,1,1,0,1
2.52,3487,1,1,0,1
2.522,3114,1,1,0,1
2.524,2634,1,1,0,1
2.526,2055,1,1,0,1
2.528,1426,1,1,0,1
2.53,806,1,1,0,1
2.532,250,1,1,0,1
2.534,15,1,1,0,1
2.536,1,1,1,0,1
2.538,0,1,1,0,1
2.54,0,1,1,0,1
2.542,0,1,1,0,1
2.544,0,1,1,0,1
2.546,0,1,1,0,1
2.548,0,1,1,0,1
2.55,0,1,1,0,1
2.552,0,1,1,0,1
2.554,0,1,1,0,1
2.556,0,1,1,0,1
2.558,25,1,1,0,1
2.56,98,1,1,0,1
2.562,193,1,1,0,1
2.564,301,1,1,0,1
2.566,438,1,1,0,1
2.568,617,1,1,0,1
2.57,843,1,1,0,1
2.572,1103,1,1,0,1
2.574,1366,1,1,0,1
2.576,1603,1,1,0,1
2.578,1791,1,1,0,1
2.58,1937,1,1,0,1
2.582,2057,1,1,0,1
2.584,2169,1,1,0,1
2.586,2285,1,1,0,1
2.588,2403,1,1,0,1
2.59,2502,1,1,0,1
2.592,2555,1,1,0,1
2.594,2559,1,1,0,1
2.596,2529,1,1,0,1
2.598,2491,1,1,0,1
2.6,2471,1,1,0,1
2.602,2477,1,1,0,1
2.604,2503,1,1,0,1
2.606,2538,1,1,0,1
2.608,2553,1,1,0,1
2.61,2535,1,1,0,1
2.612,2476,1,1,0,1
2.614,2387,1,1,0,1
2.616,2291,1,1,0,1
2.618,2227,1,1,0,1
2.62,2212,1,1,0,1
2.622,2223,1,1,0,1
2.624,2237,1,1,0,1
2.626,2231,1,1,0,1
2.628,2194,1,1,0,1
2.63,2130,1,1,0,1
2.632,2063,1,1,0,1
2.634,2021,1,1,0,1
2.636,2025,1,1,0,1
2.638,2063,1,1,0,1
2.64,2109,1,1,0,1
2.642,2150,1,1,0,1
2.644,2179,1,1,0,1
2.646,2186,1,1,0,1
2.648,2178,1,1,0,1
2.65,2179,1,1,0,1
2.652,2209,1,1,0,1
2.654,2247,1,1,0,1
2.656,2265,1,1,0,1
2.658,2251,1,1,0,1
2.66,2198,1,1,0,1
2.662,2085,1,1,0,1
2.664,1929,1,1,0,1
2.666,1822,1,1,0,1
2.668,1819,1,1,0,1
2.67,1908,1,1,0,1
2.672,2057,1,1,0,1
2.674,2218,1,1,0,1
2.676,2365,1,1,0,1
2.678,2475,1,1,0,1
2.68,2537,1,1,0,1
2.682,2557,1,1,0,1
2.684,2555,1,1,0,1
2.686,2547,1,1,0,1
2.688,2547,1,1,0,1
2.69,2555,1,1,0,1
2.692,2541,1,1,0,1
2.694,2493,1,1,0,1
2.696,2410,1,1,0,1
2.698,2330,1,1,0,1
2.7,2277,1,1,0,1
2.702,2271,1,1,0,1
2.704,2313,1,1,0,1
2.706,2381,1,1,0,1
2.708,2462,1,1,0,1
2.71,2527,1,1,0,1
2.712,2578,1,1,0,1
2.714,2627,1,1,0,1
2.716,2687,1,1,0,1
2.718,2763,1,1,0,1
2.72,2843,1,1,0,1
2.722,2937,1,1,0,1
2.724,3037,1,1,0,1
2.726,3139,1,1,0,1
2.728,3237,1,1,0,1
2.73,3314,1,1,0,1
2.732,3334,1,1,0,1
2.734,3267,1,1,0,1
2.736,3126,1,1,0,1
2.738,2923,1,1,0,1
2.74,2698,1,1,0,1
2.742,2483,1,1,0,1
2.744,2289,1,1,0,1
2.746,2113,1,1,0,1
2.748,1986,1,1,0,1
2.75,1935,1,1,0,1
2.752,1958,1,1,0,1
2.754,2046,1,1,0,1
2.756,2163,1,1,0,1
2.758,2261,1,1,0,1
2.76,2319,1,1,0,1
2.762,2330,1,1,0,1
2.764,2295,1,1,0,1
2.766,2229,1,1,0,1
2.768,2159,1,1,0,1
2.77,2122,1,1,0,1
2.772,2133,1,1,0,1
2.774,2172,1,1,0,1
2.776,2211,1,1,0,1
2.778,2222,1,1,0,1
2.78,2201,1,1,0,1
2.782,2162,1,1,0,1
2.784,2135,1,1,0,1
2.786,2131,1,1,0,1
2.788,2143,1,1,0,1
2.79,2165,1,1,0,1
2.792,2173,1,1,0,1
2.794,2163,1,1,0,1
2.796,2133,1,1,0,1
2.798,2095,1,1,0,1
2.8,2074,1,1,0,1
2.802,2081,1,1,0,1
2.804,2111,1,1,0,1
2.806,2154,1,1,0,1
2.808,2194,1,1,0,1
2.81,2215,1,1,0,1
2.812,2218,1,1,0,1
2.814,2205,1,1,0,1
2.816,2185,1,1,0,1
2.818,2186,1,1,0,1
2.82,2225,1,1,0,1
2.822,2295,1,1,0,1
2.824,2371,1,1,0,1
2.826,2411,1,1,0,1
2.828,2383,1,1,0,1
2.83,2274,1,1,0,1
2.832,2116,1,1,0,1
2.834,1962,1,1,0,1
2.836,1841,1,1,0,1
2.838,1746,1,1,0,1
2.84,1667,1,1,0,1
2.842,1586,1,1,0,1
2.844,1500,1,1,0,1
2.846,1412,1,1,0,1
2.848,1330,1,1,0,1
2.85,1268,1,1,0,1
2.852,1238,1,1,0,1
2.854,1243,1,1,0,1
2.856,1283,1,1,0,1
2.858,1350,1,1,0,1
2.86,1423,1,1,0,1
2.862,1484,1,1,0,1
2.864,1529,1,1,0,1
2.866,1569,1,1,0,1
2.868,1611,1,1,0,1
2.87,1660,1,1,0,1
2.872,1711,1,1,0,1
2.874,1750,1,1,0,1
2.876,1767,1,1,0,1
2.878,1763,1,1,0,1
2.88,1740,1,1,0,1
2.882,1715,1,1,0,1
2.884,1710,1,1,0,1
2.886,1731,1,1,0,1
2.888,1761,1,1,0,1
2.89,1790,1,1,0,1
2.892,1797,1,1,0,1
2.894,1769,1,1,0,1
2.896,1715,1,1,0,1
2.898,1651,1,1,0,1
2.9,1601,1,1,0,1
2.902,1581,1,1,0,1
2.904,1599,1,1,0,1
2.906,1647,1,1,0,1
2.908,1685,1,1,0,1
2.91,1670,1,1,0,1
2.912,1593,1,1,0,1
2.914,1482,1,1,0,1
2.916,1378,1,1,0,1
2.918,1321,1,1,0,1
2.92,1321,1,1,0,1
2.922,1370,1,1,0,1
2.924,1449,1,1,0,1
2.926,1527,1,1,0,1
2.928,1590,1,1,0,1
2.93,1636,1,1,0,1
2.932,1669,1,1,0,1
2.934,1699,1,1,0,1
2.936,1737,1,1,0,1
2.938,1780,1,1,0,1
2.94,1822,1,1,0,1
2.942,1849,1,1,0,1
2.944,1852,1,1,0,1
2.946,1823,1,1,0,1
2.948,1774,1,1,0,1
2.95,1732,1,1,0,1
2.952,1711,1,1,0,1
2.954,1719,1,1,0,1
2.956,1748,1,1,0,1
2.958,1781,1,1,0,1
2.96,1802,1,1,0,1
2.962,1803,1,1,0,1
2.964,1788,1,1,0,1
2.966,1771,1,1,0,1
2.968,1774,1,1,0,1
2.97,1805,1,1,0,1
2.972,1853,1,1,0,1
2.974,1903,1,1,0,1
2.976,1941,1,1,0,1
2.978,1951,1,1,0,1
2.98,1939,1,1,0,1
2.982,1917,1,1,0,1
2.984,1903,1,1,0,1
2.986,1914,1,1,0,1
2.988,1941,1,1,0,1
2.99,1966,1,1,0,1
2.992,1972,1,1,0,1
2.994,1947,1,1,0,1
2.996,1897,1,1,0,1
2.998,1841,1,1,0,1
3,1803,1,1,0,1
3.002,1800,1,1,0,1
3.004,1820,1,1,0,1
3.006,1849,1,1,0,1
3.008,1869,1,1,0,1
3.01,1879,1,1,0,1
3.012,1869,1,1,0,1
3.014,1846,1,1,0,1
3.016,1815,1,1,0,1
3.018,1798,1,1,0,1
3.02,1799,1,1,0,1
3.022,1810,1,1,0,1
3.024,1819,1,1,0,1
3.026,1815,1,1,0,1
3.028,1794,1,1,0,1
3.03,1777,1,1,0,1
3.032,1797,1,1,0,1
3.034,1839,1,1,0,1
3.036,1894,1,1,0,1
3.038,1945,1,1,0,1
3.04,1977,1,1,0,1
3.042,1987,1,1,0,1
3.044,1964,1,1,0,1
3.046,1911,1,1,0,1
3.048,1843,1,1,0,1
3.05,1784,1,1,0,1
3.052,1745,1,1,0,1
3.054,1717,1,1,0,1
3.056,1711,1,1,0,1
3.058,1716,1,1,0,1
3.06,1699,1,1,0,1
3.062,1661,1,1,0,1
3.064,1626,1,1,0,1
3.066,1619,1,1,0,1
3.068,1627,1,1,0,1
3.07,1641,1,1,0,1
3.072,1649,1,1,0,1
3.074,1651,1,1,0,1
3.076,1645,1,1,0,1
3.078,1635,1,1,0,1
3.08,1621,1,1,0,1
3.082,1612,1,1,0,1
3.084,1621,1,1,0,1
3.086,1634,1,1,0,1
3.088,1647,1,1,0,1
3.09,1668,1,1,0,1
3.092,1669,1,1,0,1
3.094,1654,1,1,0,1
3.096,1629,1,1,0,1
3.098,1599,1,1,0,1
3.1,1575,1,1,0,1
3.102,1593,1,1,0,1
3.104,1659,1,1,0,1
3.106,1751,1,1,0,1
3.108,1839,1,1,0,1
3.11,1875,1,1,0,1
3.112,1847,1,1,0,1
3.114,1777,1,1,0,1
3.116,1693,1,1,0,1
3.118,1619,1,1,0,1
3.12,1565,1,1,0,1
3.122,1549,1,1,0,1
3.124,1565,1,1,0,1
3.126,1589,1,1,0,1
3.128,1623,1,1,0,1
3.13,1677,1,1,0,1
3.132,1750,1,1,0,1
3.134,1828,1,1,0,1
3.136,1913,1,1,0,1
3.138,2017,1,1,0,1
3.14,2143,1,1,0,1
3.142,2302,1,1,0,1
3.144,2506,1,1,0,1
3.146,2751,1,1,0,1
3.148,3045,1,1,0,1
3.15,3399,1,1,0,1
3.152,3817,1,1,0,1
3.154,4047,1,1,0,1
3.156,4061,1,1,0,1
3.158,4061,1,1,0,1
3.16,4061,1,1,0,1
3.162,4061,1,1,0,1
3.164,4062,1,1,0,1
3.166,4062,1,1,0,1
3.168,4062,1,1,0,1
3.17,4061,1,1,0,1
3.172,4031,1,1,0,1
3.174,3801,1,1,0,1
3.176,3381,1,1,0,1
3.178,2787,1,1,0,1
3.18,2063,1,1,0,1
3.182,1279,1,1,0,1
3.184,525,1,1,0,1
3.186,43,1,1,0,1
3.188,2,1,1,0,1
3.19,0,1,1,0,1
3.192,0,1,1,0,1
3.194,0,1,1,0,1
3.196,0,1,1,0,1
3.198,0,1,1,0,1
3.2,0,1,1,0,1
3.202,0,1,1,0,1
3.204,0,1,1,0,1
3.206,0,1,1,0,1
3.208,0,1,1,0,1
3.21,0,1,1,0,1
3.212,0,1,1,0,1
3.214,0,1,1,0,1
3.216,0,1,1,0,1
3.218,0,1,1,0,1
3.22,14,1,1,0,1
3.222,154,1,1,0,1
3.224,397,1,1,0,1
3.226,689,1,1,0,1
3.228,1002,1,1,0,1
3.23,1286,1,1,0,1
3.232,1538,1,1,0,1
3.234,1774,1,1,0,1
3.236,2006,1,1,0,1
3.238,2229,1,1,0,1
3.24,2429,1,1,0,1
3.242,2586,1,1,0,1
3.244,2692,1,1,0,1
3.246,2750,1,1,0,1
3.248,2783,1,1,0,1
3.25,2822,1,1,0,1
3.252,2870,1,1,0,1
3.254,2929,1,1,0,1
3.256,2994,1,1,0,1
3.258,3053,1,1,0,1
3.26,3099,1,1,0,1
3.262,3119,1,1,0,1
3.264,3113,1,1,0,1
3.266,3089,1,1,0,1
3.268,3058,1,1,0,1
3.27,3029,1,1,0,1
3.272,2997,1,1,0,1
3.274,2957,1,1,0,1
3.276,2897,1,1,0,1
3.278,2812,1,1,0,1
3.28,2711,1,1,0,1
3.282,2605,1,1,0,1
3.284,2515,1,1,0,1
3.286,2457,1,1,0,1
3.288,2420,1,1,0,1
3.29,2389,1,1,0,1
3.292,2355,1,1,0,1
3.294,2308,1,1,0,1
3.296,2250,1,1,0,1
3.298,2194,1,1,0,1
3.3,2164,1,1,0,1
3.302,2162,1,1,0,1
3.304,2173,1,1,0,1
3.306,2191,1,1,0,1
3.308,2196,1,1,0,1
3.31,2166,1,1,0,1
3.312,2115,1,1,0,1
3.314,2059,1,1,0,1
3.316,2023,1,1,0,1
3.318,2027,1,1,0,1
3.32,2070,1,1,0,1
3.322,2139,1,1,0,1
3.324,2217,1,1,0,1
3.326,2275,1,1,0,1
3.328,2301,1,1,0,1
3.33,2298,1,1,0,1
3.332,2285,1,1,0,1
3.334,2282,1,1,0,1
3.336,2303,1,1,0,1
3.338,2342,1,1,0,1
3.34,2381,1,1,0,1
3.342,2398,1,1,0,1
3.344,2388,1,1,0,1
3.346,2346,1,1,0,1
3.348,2283,1,1,0,1
3.35,2218,1,1,0,1
3.352,2174,1,1,0,1
3.354,2162,1,1,0,1
3.356,2170,1,1,0,1
3.358,2183,1,1,0,1
3.36,2175,1,1,0,1
3.362,2147,1,1,0,1
3.364,2113,1,1,0,1
3.366,2093,1,1,0,1
3.368,2105,1,1,0,1
3.37,2152,1,1,0,1
3.372,2213,1,1,0,1
3.374,2263,1,1,0,1
3.376,2291,1,1,0,1
3.378,2287,1,1,0,1
3.38,2253,1,1,0,1
3.382,2207,1,1,0,1
3.384,2173,1,1,0,1
3.386,2166,1,1,0,1
3.388,2191,1,1,0,1
3.39,2231,1,1,0,1
3.392,2265,1,1,0,1
3.394,2285,1,1,0,1
3.396,2285,1,1,0,1
3.398,2271,1,1,0,1
3.4,2267,1,1,0,1
3.402,2286,1,1,0,1
3.404,2333,1,1,0,1
3.406,2401,1,1,0,1
3.408,2469,1,1,0,1
3.41,2507,1,1,0,1
3.412,2498,1,1,0,1
3.414,2439,1,1,0,1
3.416,2346,1,1,0,1
3.418,2251,1,1,0,1
3.42,2180,1,1,0,1
3.422,2135,1,1,0,1
3.424,2107,1,1,0,1
3.426,2075,1,1,0,1
3.428,2012,1,1,0,1
3.43,1926,1,1,0,1
3.432,1851,1,1,0,1
3.434,1822,1,1,0,1
3.436,1841,1,1,0,1
3.438,1893,1,1,0,1
3.44,1953,1,1,0,1
3.442,1990,1,1,0,1
3.444,1997,1,1,0,1
3.446,1972,1,1,0,1
3.448,1907,1,1,0,1
3.45,1839,1,1,0,1
3.452,1807,1,1,0,1
3.454,1825,1,1,0,1
3.456,1881,1,1,0,1
3.458,1934,1,1,0,1
3.46,1959,1,1,0,1
3.462,1933,1,1,0,1
3.464,1868,1,1,0,1
3.466,1802,1,1,0,1
3.468,1764,1,1,0,1
3.47,1747,1,1,0,1
3.472,1741,1,1,0,1
3.474,1741,1,1,0,1
3.476,1730,1,1,0,1
3.478,1687,1,1,0,1
3.48,1614,1,1,0,1
3.482,1529,1,1,0,1
3.484,1478,1,1,0,1
3.486,1497,1,1,0,1
3.488,1579,1,1,0,1
3.49,1681,1,1,0,1
3.492,1755,1,1,0,1
3.494,1796,1,1,0,1
3.496,1797,1,1,0,1
3.498,1759,1,1,0,1
3.5,1717,1,1,0,1
3.502,1701,1,1,0,1
3.504,1723,1,1,0,1
3.506,1763,1,1,0,1
3.508,1806,1,1,0,1
3.51,1834,1,1,0,1
3.512,1853,1,1,0,1
3.514,1853,1,1,0,1
3.516,1829,1,1,0,1
3.518,1795,1,1,0,1
3.52,1777,1,1,0,1
3.522,1781,1,1,0,1
3.524,1775,1,1,0,1
3.526,1735,1,1,0,1
3.528,1659,1,1,0,1
3.53,1561,1,1,0,1
3.532,1461,1,1,0,1
3.534,1397,1,1,0,1
3.536,1388,1,1,0,1
3.538,1428,1,1,0,1
3.54,1498,1,1,0,1
3.542,1578,1,1,0,1
3.544,1643,1,1,0,1
3.546,1685,1,1,0,1
3.548,1715,1,1,0,1
3.55,1745,1,1,0,1
3.552,1787,1,1,0,1
3.554,1841,1,1,0,1
3.556,1884,1,1,0,1
3.558,1902,1,1,0,1
3.56,1885,1,1,0,1
3.562,1829,1,1,0,1
3.564,1742,1,1,0,1
3.566,1663,1,1,0,1
3.568,1621,1,1,0,1
3.57,1625,1,1,0,1
3.572,1663,1,1,0,1
3.574,1707,1,1,0,1
3.576,1726,1,1,0,1
3.578,1708,1,1,0,1
3.58,1653,1,1,0,1
3.582,1601,1,1,0,1
3.584,1589,1,1,0,1
3.586,1630,1,1,0,1
3.588,1711,1,1,0,1
3.59,1813,1,1,0,1
3.592,1895,1,1,0,1
3.594,1922,1,1,0,1
3.596,1877,1,1,0,1
3.598,1774,1,1,0,1
3.6,1655,1,1,0,1
3.602,1557,1,1,0,1
3.604,1499,1,1,0,1
3.606,1483,1,1,0,1
3.608,1470,1,1,0,1
3.61,1439,1,1,0,1
3.612,1388,1,1,0,1
3.614,1333,1,1,0,1
3.616,1307,1,1,0,1
3.618,1331,1,1,0,1
3.62,1398,1,1,0,1
3.622,1491,1,1,0,1
3.624,1593,1,1,0,1
3.626,1684,1,1,0,1
3.628,1753,1,1,0,1
3.63,1806,1,1,0,1
3.632,1858,1,1,0,1
3.634,1926,1,1,0,1
3.636,2011,1,1,0,1
3.638,2098,1,1,0,1
3.64,2167,1,1,0,1
3.642,2197,1,1,0,1
3.644,2185,1,1,0,1
3.646,2142,1,1,0,1
3.648,2098,1,1,0,1
3.65,2078,1,1,0,1
3.652,2091,1,1,0,1
3.654,2131,1,1,0,1
3.656,2184,1,1,0,1
3.658,2225,1,1,0,1
3.66,2249,1,1,0,1
3.662,2251,1,1,0,1
3.664,2231,1,1,0,1
3.666,2199,1,1,0,1
3.668,2171,1,1,0,1
3.67,2157,1,1,0,1
3.672,2151,1,1,0,1
3.674,2141,1,1,0,1
3.676,2135,1,1,0,1
3.678,2125,1,1,0,1
3.68,2097,1,1,0,1
3.682,2057,1,1,0,1
3.684,2023,1,1,0,1
3.686,2013,1,1,0,1
3.688,2018,1,1,0,1
3.69,2031,1,1,0,1
3.692,2046,1,1,0,1
3.694,2054,1,1,0,1
3.696,2045,1,1,0,1
3.698,2036,1,1,0,1
3.7,2052,1,1,0,1
3.702,2102,1,1,0,1
3.704,2185,1,1,0,1
3.706,2274,1,1,0,1
3.708,2338,1,1,0,1
3.71,2358,1,1,0,1
3.712,2341,1,1,0,1
3.714,2292,1,1,0,1
3.716,2229,1,1,0,1
3.718,2166,1,1,0,1
3.72,2118,1,1,0,1
3.722,2077,1,1,0,1
3.724,2021,1,1,0,1
3.726,1939,1,1,0,1
3.728,1836,1,1,0,1
3.73,1719,1,1,0,1
3.732,1605,1,1,0,1
3.734,1516,1,1,0,1
3.736,1470,1,1,0,1
3.738,1462,1,1,0,1
3.74,1474,1,1,0,1
3.742,1482,1,1,0,1
3.744,1479,1,1,0,1
3.746,1454,1,1,0,1
3.748,1418,1,1,0,1
3.75,1389,1,1,0,1
3.752,1382,1,1,0,1
3.754,1398,1,1,0,1
3.756,1442,1,1,0,1
3.758,1486,1,1,0,1
3.76,1511,1,1,0,1
3.762,1507,1,1,0,1
3.764,1483,1,1,0,1
3.766,1462,1,1,0,1
3.768,1465,1,1,0,1
3.77,1495,1,1,0,1
3.772,1553,1,1,0,1
3.774,1617,1,1,0,1
3.776,1659,1,1,0,1
3.778,1670,1,1,0,1
3.78,1637,1,1,0,1
3.782,1589,1,1,0,1
3.784,1558,1,1,0,1
3.786,1581,1,1,0,1
3.788,1655,1,1,0,1
3.79,1743,1,1,0,1
3.792,1819,1,1,0,1
3.794,1885,1,1,0,1
3.796,1946,1,1,0,1
3.798,2026,1,1,0,1
3.8,2154,1,1,0,1
3.802,2354,1,1,0,1
3.804,2618,1,1,0,1
3.806,2947,1,1,0,1
3.808,3319,1,1,0,1
3.81,3709,1,1,0,1
3.812,4023,1,1,0,1
3.814,4059,1,1,0,1
3.816,4061,1,1,0,1
3.818,4062,1,1,0,1
3.82,4062,1,1,0,1
3.822,4061,1,1,0,1
3.824,4035,1,1,0,1
3.826,3861,1,1,0,1
3.828,3539,1,1,0,1
3.83,3095,1,1,0,1
3.832,2549,1,1,0,1
3.834,1927,1,1,0,1
3.836,1290,1,1,0,1
3.838,695,1,1,0,1
3.84,176,1,1,0,1
3.842,9,1,1,0,1
3.844,0,1,1,0,1
3.846,0,1,1,0,1
3.848,0,1,1,0,1
3.85,0,1,1,0,1
3.852,0,1,1,0,1
3.854,0,1,1,0,1
3.856,0,1,1,0,1
3.858,0,1,1,0,1
3.86,0,1,1,0,1
3.862,0,1,1,0,1
3.864,0,1,1,0,1
3.866,0,1,1,0,1
3.868,0,1,1,0,1
3.87,0,1,1,0,1
3.872,0,1,1,0,1
3.874,21,1,1,0,1
3.876,120,1,1,0,1
3.878,261,1,1,0,1
3.88,431,1,1,0,1
3.882,632,1,1,0,1
3.884,855,1,1,0,1
3.886,1086,1,1,0,1
3.888,1318,1,1,0,1
3.89,1531,1,1,0,1
3.892,1711,1,1,0,1
3.894,1854,1,1,0,1
3.896,1966,1,1,0,1
3.898,2043,1,1,0,1
3.9,2121,1,1,0,1
3.902,2226,1,1,0,1
3.904,2387,1,1,0,1
3.906,2597,1,1,0,1
3.908,2815,1,1,0,1
3.91,3006,1,1,0,1
3.912,3135,1,1,0,1
3.914,3182,1,1,0,1
3.916,3157,1,1,0,1
3.918,3089,1,1,0,1
3.92,2983,1,1,0,1
3.922,2861,1,1,0,1
3.924,2758,1,1,0,1
3.926,2675,1,1,0,1
3.928,2610,1,1,0,1
3.93,2557,1,1,0,1
3.932,2525,1,1,0,1
3.934,2509,1,1,0,1
3.936,2511,1,1,0,1
3.938,2541,1,1,0,1
3.94,2605,1,1,0,1
3.942,2693,1,1,0,1
3.944,2783,1,1,0,1
3.946,2845,1,1,0,1
3.948,2868,1,1,0,1
3.95,2863,1,1,0,1
3.952,2841,1,1,0,1
3.954,2810,1,1,0,1
3.956,2777,1,1,0,1
3.958,2737,1,1,0,1
3.96,2674,1,1,0,1
3.962,2595,1,1,0,1
3.964,2516,1,1,0,1
3.966,2459,1,1,0,1
3.968,2435,1,1,0,1
3.97,2436,1,1,0,1
3.972,2457,1,1,0,1
3.974,2494,1,1,0,1
3.976,2534,1,1,0,1
3.978,2572,1,1,0,1
3.98,2597,1,1,0,1
3.982,2617,1,1,0,1
3.984,2639,1,1,0,1
3.986,2666,1,1,0,1
3.988,2718,1,1,0,1
3.99,2797,1,1,0,1
3.992,2875,1,1,0,1
3.994,2925,1,1,0,1
3.996,2941,1,1,0,1
3.998,2931,1,1,0,1
4,2906,1,1,0,1
4.002,2871,1,1,0,1
4.004,2833,1,1,0,1
4.006,2802,1,1,0,1
4.008,2788,1,1,0,1
4.01,2773,1,1,0,1
4.012,2743,1,1,0,1
4.014,2705,1,1,0,1
4.016,2673,1,1,0,1
4.018,2667,1,1,0,1
4.02,2684,1,1,0,1
4.022,2718,1,1,0,1
4.024,2751,1,1,0,1
4.026,2771,1,1,0,1
4.028,2769,1,1,0,1
4.03,2746,1,1,0,1
4.032,2711,1,1,0,1
4.034,2684,1,1,0,1
4.036,2673,1,1,0,1
4.038,2665,1,1,0,1
4.04,2644,1,1,0,1
4.042,2605,1,1,0,1
4.044,2551,1,1,0,1
4.046,2506,1,1,0,1
4.048,2484,1,1,0,1
4.05,2506,1,1,0,1
4.052,2571,1,1,0,1
4.054,2650,1,1,0,1
4.056,2731,1,1,0,1
4.058,2805,1,1,0,1
4.06,2861,1,1,0,1
4.062,2892,1,1,0,1
4.064,2905,1,1,0,1
4.066,2914,1,1,0,1
4.068,2931,1,1,0,1
4.07,2961,1,1,0,1
4.072,2997,1,1,0,1
4.074,3017,1,1,0,1
4.076,2999,1,1,0,1
4.078,2933,1,1,0,1
4.08,2831,1,1,0,1
4.082,2715,1,1,0,1
4.084,2617,1,1,0,1
4.086,2554,1,1,0,1
4.088,2539,1,1,0,1
4.09,2563,1,1,0,1
4.092,2591,1,1,0,1
4.094,2607,1,1,0,1
4.096,2597,1,1,0,1
4.098,2566,1,1,0,1
4.1,2521,1,1,0,1
4.102,2488,1,1,0,1
4.104,2475,1,1,0,1
4.106,2477,1,1,0,1
4.108,2478,1,1,0,1
4.11,2463,1,1,0,1
4.112,2419,1,1,0,1
4.114,2339,1,1,0,1
4.116,2235,1,1,0,1
4.118,2141,1,1,0,1
4.12,2078,1,1,0,1
4.122,2039,1,1,0,1
4.124,2026,1,1,0,1
4.126,2018,1,1,0,1
4.128,1997,1,1,0,1
4.13,1961,1,1,0,1
4.132,1924,1,1,0,1
4.134,1907,1,1,0,1
4.136,1914,1,1,0,1
4.138,1938,1,1,0,1
4.14,1963,1,1,0,1
4.142,1985,1,1,0,1
4.144,1986,1,1,0,1
4.146,1949,1,1,0,1
4.148,1881,1,1,0,1
4.15,1811,1,1,0,1
4.152,1761,1,1,0,1
4.154,1738,1,1,0,1
4.156,1741,1,1,0,1
4.158,1755,1,1,0,1
4.16,1762,1,1,0,1
4.162,1746,1,1,0,1
4.164,1708,1,1,0,1
4.166,1672,1,1,0,1
4.168,1655,1,1,0,1
4.17,1666,1,1,0,1
4.172,1693,1,1,0,1
4.174,1719,1,1,0,1
4.176,1726,1,1,0,1
4.178,1706,1,1,0,1
4.18,1655,1,1,0,1
4.182,1595,1,1,0,1
4.184,1555,1,1,0,1
4.186,1547,1,1,0,1
4.188,1556,1,1,0,1
4.19,1564,1,1,0,1
4.192,1547,1,1,0,1
4.194,1497,1,1,0,1
4.196,1423,1,1,0,1
4.198,1348,1,1,0,1
4.2,1287,1,1,0,1
4.202,1256,1,1,0,1
4.204,1260,1,1,0,1
4.206,1300,1,1,0,1
4.208,1357,1,1,0,1
4.21,1407,1,1,0,1
4.212,1437,1,1,0,1
4.214,1439,1,1,0,1
4.216,1436,1,1,0,1
4.218,1447,1,1,0,1
4.22,1483,1,1,0,1
4.222,1534,1,1,0,1
4.224,1581,1,1,0,1
4.226,1591,1,1,0,1
4.228,1561,1,1,0,1
4.23,1498,1,1,0,1
4.232,1446,1,1,0,1
4.234,1429,1,1,0,1
4.236,1461,1,1,0,1
4.238,1535,1,1,0,1
4.24,1631,1,1,0,1
4.242,1709,1,1,0,1
4.244,1751,1,1,0,1
4.246,1758,1,1,0,1
4.248,1747,1,1,0,1
4.25,1739,1,1,0,1
4.252,1739,1,1,0,1
4.254,1740,1,1,0,1
4.256,1739,1,1,0,1
4.258,1733,1,1,0,1
4.26,1717,1,1,0,1
4.262,1678,1,1,0,1
4.264,1622,1,1,0,1
4.266,1571,1,1,0,1
4.268,1555,1,1,0,1
4.27,1580,1,1,0,1
4.272,1634,1,1,0,1
4.274,1701,1,1,0,1
4.276,1765,1,1,0,1
4.278,1789,1,1,0,1
4.28,1758,1,1,0,1
4.282,1691,1,1,0,1
4.284,1641,1,1,0,1
4.286,1637,1,1,0,1
4.288,1684,1,1,0,1
4.29,1757,1,1,0,1
4.292,1819,1,1,0,1
4.294,1852,1,1,0,1
4.296,1869,1,1,0,1
4.298,1885,1,1,0,1
4.3,1914,1,1,0,1
4.302,1963,1,1,0,1
4.304,2023,1,1,0,1
4.306,2083,1,1,0,1
4.308,2121,1,1,0,1
4.31,2122,1,1,0,1
4.312,2084,1,1,0,1
4.314,2031,1,1,0,1
4.316,1999,1,1,0,1
4.318,2025,1,1,0,1
4.32,2111,1,1,0,1
4.322,2226,1,1,0,1
4.324,2341,1,1,0,1
4.326,2429,1,1,0,1
4.328,2470,1,1,0,1
4.33,2466,1,1,0,1
4.332,2443,1,1,0,1
4.334,2431,1,1,0,1
4.336,2430,1,1,0,1
4.338,2437,1,1,0,1
4.34,2447,1,1,0,1
4.342,2423,1,1,0,1
4.344,2346,1,1,0,1
4.346,2217,1,1,0,1
4.348,2059,1,1,0,1
4.35,1906,1,1,0,1
4.352,1774,1,1,0,1
4.354,1677,1,1,0,1
4.356,1611,1,1,0,1
4.358,1555,1,1,0,1
4.36,1489,1,1,0,1
4.362,1406,1,1,0,1
4.364,1321,1,1,0,1
4.366,1251,1,1,0,1
4.368,1211,1,1,0,1
4.37,1197,1,1,0,1
4.372,1193,1,1,0,1
4.374,1176,1,1,0,1
4.376,1130,1,1,0,1
4.378,1057,1,1,0,1
4.38,975,1,1,0,1
4.382,918,1,1,0,1
4.384,900,1,1,0,1
4.386,940,1,1,0,1
4.388,1039,1,1,0,1
4.39,1171,1,1,0,1
4.392,1293,1,1,0,1
4.394,1386,1,1,0,1
4.396,1441,1,1,0,1
4.398,1469,1,1,0,1
4.4,1507,1,1,0,1
4.402,1571,1,1,0,1
4.404,1667,1,1,0,1
4.406,1781,1,1,0,1
4.408,1885,1,1,0,1
4.41,1960,1,1,0,1
4.412,2002,1,1,0,1
4.414,2009,1,1,0,1
4.416,2007,1,1,0,1
4.418,2029,1,1,0,1
4.42,2088,1,1,0,1
4.422,2167,1,1,0,1
4.424,2253,1,1,0,1
4.426,2322,1,1,0,1
4.428,2358,1,1,0,1
4.43,2351,1,1,0,1
4.432,2314,1,1,0,1
4.434,2259,1,1,0,1
4.436,2209,1,1,0,1
4.438,2175,1,1,0,1
4.44,2172,1,1,0,1
4.442,2200,1,1,0,1
4.444,2271,1,1,0,1
4.446,2397,1,1,0,1
4.448,2597,1,1,0,1
4.45,2887,1,1,0,1
4.452,3286,1,1,0,1
4.454,3782,1,1,0,1
4.456,4045,1,1,0,1
4.458,4060,1,1,0,1
4.46,4061,1,1,0,1
4.462,4061,1,1,0,1
4.464,4062,1,1,0,1
4.466,4061,1,1,0,1
4.468,4062,1,1,0,1
4.47,4062,1,1,0,1
4.472,4061,1,1,0,1
4.474,4061,1,1,0,1
4.476,4061,1,1,0,1
4.478,3993,1,1,0,1
4.48,3651,1,1,0,1
4.482,3109,1,1,0,1
4.484,2474,1,1,0,1
4.486,1836,1,1,0,1
4.488,1258,1,1,0,1
4.49,763,1,1,0,1
4.492,351,1,1,0,1
4.494,43,1,1,0,1
4.496,2,1,1,0,1
4.498,0,1,1,0,1
4.5,0,1,1,0,1
4.502,0,1,1,0,1
4.504,0,1,1,0,1
4.506,0,1,1,0,1
4.508,0,1,1,0,1
4.51,0,1,1,0,1
4.512,0,1,1,0,1
4.514,0,1,1,0,1
4.516,0,1,1,0,1
4.518,0,1,1,0,1
4.52,0,1,1,0,1
4.522,19,1,1,0,1
4.524,133,1,1,0,1
4.526,305,1,1,0,1
4.528,498,1,1,0,1
4.53,688,1,1,0,1
4.532,874,1,1,0,1
4.534,1071,1,1,0,1
4.536,1286,1,1,0,1
4.538,1509,1,1,0,1
4.54,1725,1,1,0,1
4.542,1916,1,1,0,1
4.544,2066,1,1,0,1
4.546,2157,1,1,0,1
4.548,2210,1,1,0,1
4.55,2254,1,1,0,1
4.552,2308,1,1,0,1
4.554,2374,1,1,0,1
4.556,2445,1,1,0,1
4.558,2503,1,1,0,1
4.56,2537,1,1,0,1
4.562,2540,1,1,0,1
4.564,2521,1,1,0,1
4.566,2495,1,1,0,1
4.568,2487,1,1,0,1
4.57,2499,1,1,0,1
4.572,2532,1,1,0,1
4.574,2573,1,1,0,1
4.576,2597,1,1,0,1
4.578,2586,1,1,0,1
4.58,2537,1,1,0,1
4.582,2469,1,1,0,1
4.584,2402,1,1,0,1
4.586,2349,1,1,0,1
4.588,2316,1,1,0,1
4.59,2313,1,1,0,1
4.592,2340,1,1,0,1
4.594,2373,1,1,0,1
4.596,2396,1,1,0,1
4.598,2409,1,1,0,1
4.6,2423,1,1,0,1
4.602,2454,1,1,0,1
4.604,2501,1,1,0,1
4.606,2551,1,1,0,1
4.608,2601,1,1,0,1
4.61,2627,1,1,0,1
4.612,2621,1,1,0,1
4.614,2591,1,1,0,1
4.616,2554,1,1,0,1
4.618,2535,1,1,0,1
4.62,2542,1,1,0,1
4.622,2566,1,1,0,1
4.624,2597,1,1,0,1
4.626,2617,1,1,0,1
4.628,2618,1,1,0,1
4.63,2603,1,1,0,1
4.632,2583,1,1,0,1
4.634,2573,1,1,0,1
4.636,2582,1,1,0,1
4.638,2607,1,1,0,1
4.64,2638,1,1,0,1
4.642,2664,1,1,0,1
4.644,2667,1,1,0,1
4.646,2643,1,1,0,1
4.648,2601,1,1,0,1
4.65,2565,1,1,0,1
4.652,2549,1,1,0,1
4.654,2545,1,1,0,1
4.656,2553,1,1,0,1
4.658,2567,1,1,0,1
4.66,2575,1,1,0,1
4.662,2565,1,1,0,1
4.664,2535,1,1,0,1
4.666,2506,1,1,0,1
4.668,2503,1,1,0,1
4.67,2525,1,1,0,1
4.672,2569,1,1,0,1
4.674,2604,1,1,0,1
4.676,2609,1,1,0,1
4.678,2570,1,1,0,1
4.68,2478,1,1,0,1
4.682,2356,1,1,0,1
4.684,2260,1,1,0,1
4.686,2221,1,1,0,1
4.688,2237,1,1,0,1
4.69,2287,1,1,0,1
4.692,2356,1,1,0,1
4.694,2425,1,1,0,1
4.696,2471,1,1,0,1
4.698,2487,1,1,0,1
4.7,2503,1,1,0,1
4.702,2531,1,1,0,1
4.704,2573,1,1,0,1
4.706,2617,1,1,0,1
4.708,2646,1,1,0,1
4.71,2645,1,1,0,1
4.712,2615,1,1,0,1
4.714,2581,1,1,0,1
4.716,2543,1,1,0,1
4.718,2525,1,1,0,1
4.72,2542,1,1,0,1
4.722,2595,1,1,0,1
4.724,2669,1,1,0,1
4.726,2739,1,1,0,1
4.728,2795,1,1,0,1
4.73,2837,1,1,0,1
4.732,2873,1,1,0,1
4.734,2923,1,1,0,1
4.736,2993,1,1,0,1
4.738,3082,1,1,0,1
4.74,3161,1,1,0,1
4.742,3198,1,1,0,1
4.744,3182,1,1,0,1
4.746,3125,1,1,0,1
4.748,3053,1,1,0,1
4.75,3001,1,1,0,1
4.752,2982,1,1,0,1
4.754,2991,1,1,0,1
4.756,2990,1,1,0,1
4.758,2947,1,1,0,1
4.76,2847,1,1,0,1
4.762,2699,1,1,0,1
4.764,2517,1,1,0,1
4.766,2340,1,1,0,1
4.768,2198,1,1,0,1
4.77,2105,1,1,0,1
4.772,2054,1,1,0,1
4.774,2017,1,1,0,1
4.776,1978,1,1,0,1
4.778,1925,1,1,0,1
4.78,1853,1,1,0,1
4.782,1742,1,1,0,1
4.784,1594,1,1,0,1
4.786,1454,1,1,0,1
4.788,1325,1,1,0,1
4.79,1230,1,1,0,1
4.792,1185,1,1,0,1
4.794,1182,1,1,0,1
4.796,1215,1,1,0,1
4.798,1274,1,1,0,1
4.8,1349,1,1,0,1
4.802,1441,1,1,0,1
4.804,1554,1,1,0,1
4.806,1677,1,1,0,1
4.808,1791,1,1,0,1
4.81,1877,1,1,0,1
4.812,1930,1,1,0,1
4.814,1958,1,1,0,1
4.816,1973,1,1,0,1
4.818,1987,1,1,0,1
4.82,2010,1,1,0,1
4.822,2044,1,1,0,1
4.824,2081,1,1,0,1
4.826,2099,1,1,0,1
4.828,2097,1,1,0,1
4.83,2083,1,1,0,1
4.832,2068,1,1,0,1
4.834,2065,1,1,0,1
4.836,2070,1,1,0,1
4.838,2085,1,1,0,1
4.84,2097,1,1,0,1
4.842,2098,1,1,0,1
4.844,2071,1,1,0,1
4.846,2015,1,1,0,1
4.848,1946,1,1,0,1
4.85,1878,1,1,0,1
4.852,1833,1,1,0,1
4.854,1810,1,1,0,1
4.856,1796,1,1,0,1
4.858,1777,1,1,0,1
4.86,1740,1,1,0,1
4.862,1679,1,1,0,1
4.864,1597,1,1,0,1
4.866,1510,1,1,0,1
4.868,1444,1,1,0,1
4.87,1409,1,1,0,1
4.872,1392,1,1,0,1
4.874,1380,1,1,0,1
4.876,1358,1,1,0,1
4.878,1320,1,1,0,1
4.88,1261,1,1,0,1
4.882,1200,1,1,0,1
4.884,1164,1,1,0,1
4.886,1165,1,1,0,1
4.888,1196,1,1,0,1
4.89,1235,1,1,0,1
4.892,1260,1,1,0,1
4.894,1261,1,1,0,1
4.896,1241,1,1,0,1
4.898,1212,1,1,0,1
4.9,1193,1,1,0,1
4.902,1198,1,1,0,1
4.904,1235,1,1,0,1
4.906,1292,1,1,0,1
4.908,1358,1,1,0,1
4.91,1422,1,1,0,1
4.912,1471,1,1,0,1
4.914,1501,1,1,0,1
4.916,1525,1,1,0,1
4.918,1563,1,1,0,1
4.92,1621,1,1,0,1
4.922,1690,1,1,0,1
4.924,1753,1,1,0,1
4.926,1801,1,1,0,1
4.928,1822,1,1,0,1
4.93,1823,1,1,0,1
4.932,1802,1,1,0,1
4.934,1774,1,1,0,1
4.936,1768,1,1,0,1
4.938,1790,1,1,0,1
4.94,1834,1,1,0,1
4.942,1869,1,1,0,1
4.944,1881,1,1,0,1
4.946,1874,1,1,0,1
4.948,1853,1,1,0,1
4.95,1845,1,1,0,1
4.952,1879,1,1,0,1
4.954,1959,1,1,0,1
4.956,2065,1,1,0,1
4.958,2158,1,1,0,1
4.96,2222,1,1,0,1
4.962,2245,1,1,0,1
4.964,2229,1,1,0,1
4.966,2202,1,1,0,1
4.968,2187,1,1,0,1
4.97,2186,1,1,0,1
4.972,2197,1,1,0,1
4.974,2214,1,1,0,1
4.976,2222,1,1,0,1
4.978,2213,1,1,0,1
4.98,2183,1,1,0,1
4.982,2142,1,1,0,1
4.984,2121,1,1,0,1
4.986,2127,1,1,0,1
4.988,2154,1,1,0,1
4.99,2195,1,1,0,1
4.992,2230,1,1,0,1
4.994,2241,1,1,0,1
4.996,2215,1,1,0,1
4.998,2155,1,1,0,1
5,2087,1,1,0,1
5.002,2031,1,1,0,1
5.004,1994,1,1,0,1
5.006,1965,1,1,0,1
5.008,1931,1,1,0,1
5.01,1875,1,1,0,1
5.012,1781,1,1,0,1
5.014,1655,1,1,0,1
5.016,1522,1,1,0,1
5.018,1420,1,1,0,1
5.02,1372,1,1,0,1
5.022,1367,1,1,0,1
5.024,1388,1,1,0,1
5.026,1414,1,1,0,1
5.028,1418,1,1,0,1
5.03,1385,1,1,0,1
5.032,1334,1,1,0,1
5.034,1318,1,1,0,1
5.036,1351,1,1,0,1
5.038,1418,1,1,0,1
5.04,1492,1,1,0,1
5.042,1523,1,1,0,1
5.044,1494,1,1,0,1
5.046,1414,1,1,0,1
5.048,1301,1,1,0,1
5.05,1207,1,1,0,1
5.052,1169,1,1,0,1
5.054,1183,1,1,0,1
5.056,1252,1,1,0,1
5.058,1365,1,1,0,1
5.06,1517,1,1,0,1
5.062,1675,1,1,0,1
5.064,1799,1,1,0,1
5.066,1914,1,1,0,1
5.068,2027,1,1,0,1
5.07,2105,1,1,0,1
5.072,2138,1,1,0,1
5.074,2120,1,1,0,1
5.076,2051,1,1,0,1
5.078,1940,1,1,0,1
5.08,1842,1,1,0,1
5.082,1802,1,1,0,1
5.084,1843,1,1,0,1
5.086,1985,1,1,0,1
5.088,2231,1,1,0,1
5.09,2563,1,1,0,1
5.092,2973,1,1,0,1
5.094,3453,1,1,0,1
5.096,3942,1,1,0,1
5.098,4055,1,1,0,1
5.1,4061,1,1,0,1
5.102,4062,1,1,0,1
5.104,4062,1,1,0,1
5.106,4061,1,1,0,1
5.108,4061,1,1,0,1
5.11,4061,1,1,0,1
5.112,4061,1,1,0,1
5.114,4062,1,1,0,1
5.116,4061,1,1,0,1
5.118,4011,1,1,0,1
5.12,3797,1,1,0,1
5.122,3450,1,1,0,1
5.124,2999,1,1,0,1
5.126,2473,1,1,0,1
5.128,1897,1,1,0,1
5.13,1290,1,1,0,1
5.132,700,1,1,0,1
5.134,174,1,1,0,1
5.136,9,1,1,0,1
5.138,0,1,1,0,1
5.14,0,1,1,0,1
5.142,0,1,1,0,1
5.144,0,1,1,0,1
5.146,0,1,1,0,1
5.148,0,1,1,0,1
5.15,0,1,1,0,1
5.152,0,1,1,0,1
5.154,0,1,1,0,1
5.156,0,1,1,0,1
5.158,0,1,1,0,1
5.16,0,1,1,0,1
5.162,0,1,1,0,1
5.164,0,1,1,0,1
5.166,27,1,1,0,1
5.168,135,1,1,0,1
5.17,281,1,1,0,1
5.172,445,1,1,0,1
5.174,629,1,1,0,1
5.176,823,1,1,0,1
5.178,1013,1,1,0,1
5.18,1187,1,1,0,1
5.182,1333,1,1,0,1
5.184,1467,1,1,0,1
5.186,1597,1,1,0,1
5.188,1726,1,1,0,1
5.19,1855,1,1,0,1
5.192,1983,1,1,0,1
5.194,2101,1,1,0,1
5.196,2201,1,1,0,1
5.198,2302,1,1,0,1
5.2,2413,1,1,0,1
5.202,2527,1,1,0,1
5.204,2650,1,1,0,1
5.206,2771,1,1,0,1
5.208,2873,1,1,0,1
5.21,2942,1,1,0,1
5.212,2971,1,1,0,1
5.214,2969,1,1,0,1
5.216,2953,1,1,0,1
5.218,2941,1,1,0,1
5.22,2951,1,1,0,1
5.222,2982,1,1,0,1
5.224,3023,1,1,0,1
5.226,3054,1,1,0,1
5.228,3060,1,1,0,1
5.23,3036,1,1,0,1
5.232,2999,1,1,0,1
5.234,2973,1,1,0,1
5.236,2982,1,1,0,1
5.238,3029,1,1,0,1
5.24,3103,1,1,0,1
5.242,3187,1,1,0,1
5.244,3253,1,1,0,1
5.246,3283,1,1,0,1
5.248,3274,1,1,0,1
5.25,3238,1,1,0,1
5.252,3193,1,1,0,1
5.254,3151,1,1,0,1
5.256,3111,1,1,0,1
5.258,3053,1,1,0,1
5.26,2975,1,1,0,1
5.262,2870,1,1,0,1
5.264,2749,1,1,0,1
5.266,2634,1,1,0,1
5.268,2549,1,1,0,1
5.27,2503,1,1,0,1
5.272,2489,1,1,0,1
5.274,2490,1,1,0,1
5.276,2482,1,1,0,1
5.278,2455,1,1,0,1
5.28,2411,1,1,0,1
5.282,2363,1,1,0,1
5.284,2334,1,1,0,1
5.286,2338,1,1,0,1
5.288,2365,1,1,0,1
5.29,2409,1,1,0,1
5.292,2455,1,1,0,1
5.294,2489,1,1,0,1
5.296,2506,1,1,0,1
5.298,2509,1,1,0,1
5.3,2515,1,1,0,1
5.302,2535,1,1,0,1
5.304,2566,1,1,0,1
5.306,2598,1,1,0,1
5.308,2629,1,1,0,1
5.31,2639,1,1,0,1
5.312,2627,1,1,0,1
5.314,2591,1,1,0,1
5.316,2549,1,1,0,1
5.318,2524,1,1,0,1
5.32,2524,1,1,0,1
5.322,2543,1,1,0,1
5.324,2573,1,1,0,1
5.326,2593,1,1,0,1
5.328,2588,1,1,0,1
5.33,2555,1,1,0,1
5.332,2507,1,1,0,1
5.334,2461,1,1,0,1
5.336,2434,1,1,0,1
5.338,2430,1,1,0,1
5.34,2446,1,1,0,1
5.342,2469,1,1,0,1
5.344,2475,1,1,0,1
5.346,2454,1,1,0,1
5.348,2402,1,1,0,1
5.35,2333,1,1,0,1
5.352,2262,1,1,0,1
5.354,2214,1,1,0,1
5.356,2204,1,1,0,1
5.358,2216,1,1,0,1
5.36,2227,1,1,0,1
5.362,2231,1,1,0,1
5.364,2230,1,1,0,1
5.366,2237,1,1,0,1
5.368,2269,1,1,0,1
5.37,2327,1,1,0,1
5.372,2399,1,1,0,1
5.374,2471,1,1,0,1
5.376,2511,1,1,0,1
5.378,2515,1,1,0,1
5.38,2477,1,1,0,1
5.382,2421,1,1,0,1
5.384,2377,1,1,0,1
5.386,2357,1,1,0,1
5.388,2358,1,1,0,1
5.39,2372,1,1,0,1
5.392,2379,1,1,0,1
5.394,2365,1,1,0,1
5.396,2322,1,1,0,1
5.398,2263,1,1,0,1
5.4,2211,1,1,0,1
5.402,2169,1,1,0,1
5.404,2137,1,1,0,1
5.406,2118,1,1,0,1
5.408,2081,1,1,0,1
5.41,2003,1,1,0,1
5.412,1899,1,1,0,1
5.414,1783,1,1,0,1
5.416,1673,1,1,0,1
5.418,1589,1,1,0,1
5.42,1518,1,1,0,1
5.422,1463,1,1,0,1
5.424,1423,1,1,0,1
5.426,1394,1,1,0,1
5.428,1354,1,1,0,1
5.43,1297,1,1,0,1
5.432,1239,1,1,0,1
5.434,1195,1,1,0,1
5.436,1167,1,1,0,1
5.438,1157,1,1,0,1
5.44,1172,1,1,0,1
5.442,1193,1,1,0,1
5.444,1205,1,1,0,1
5.446,1210,1,1,0,1
5.448,1199,1,1,0,1
5.45,1167,1,1,0,1
5.452,1132,1,1,0,1
5.454,1090,1,1,0,1
5.456,1042,1,1,0,1
5.458,1009,1,1,0,1
5.46,995,1,1,0,1
5.462,993,1,1,0,1
5.464,998,1,1,0,1
5.466,1031,1,1,0,1
5.468,1107,1,1,0,1
5.47,1226,1,1,0,1
5.472,1387,1,1,0,1
5.474,1549,1,1,0,1
5.476,1682,1,1,0,1
5.478,1765,1,1,0,1
5.48,1783,1,1,0,1
5.482,1759,1,1,0,1
5.484,1748,1,1,0,1
5.486,1766,1,1,0,1
5.488,1803,1,1,0,1
5.49,1826,1,1,0,1
5.492,1812,1,1,0,1
5.494,1759,1,1,0,1
5.496,1684,1,1,0,1
5.498,1599,1,1,0,1
5.5,1533,1,1,0,1
5.502,1479,1,1,0,1
5.504,1437,1,1,0,1
5.506,1414,1,1,0,1
5.508,1385,1,1,0,1
5.51,1349,1,1,0,1
5.512,1307,1,1,0,1
5.514,1276,1,1,0,1
5.516,1262,1,1,0,1
5.518,1275,1,1,0,1
5.52,1327,1,1,0,1
5.522,1411,1,1,0,1
5.524,1505,1,1,0,1
5.526,1589,1,1,0,1
5.528,1650,1,1,0,1
5.53,1685,1,1,0,1
5.532,1695,1,1,0,1
5.534,1707,1,1,0,1
5.536,1739,1,1,0,1
5.538,1788,1,1,0,1
5.54,1849,1,1,0,1
5.542,1909,1,1,0,1
5.544,1953,1,1,0,1
5.546,1961,1,1,0,1
5.548,1933,1,1,0,1
5.55,1891,1,1,0,1
5.552,1854,1,1,0,1
5.554,1813,1,1,0,1
5.556,1755,1,1,0,1
5.558,1713,1,1,0,1
5.56,1701,1,1,0,1
5.562,1701,1,1,0,1
5.564,1669,1,1,0,1
5.566,1602,1,1,0,1
5.568,1541,1,1,0,1
5.57,1510,1,1,0,1
5.572,1510,1,1,0,1
5.574,1512,1,1,0,1
5.576,1497,1,1,0,1
5.578,1469,1,1,0,1
5.58,1430,1,1,0,1
5.582,1403,1,1,0,1
5.584,1418,1,1,0,1
5.586,1486,1,1,0,1
5.588,1603,1,1,0,1
5.59,1750,1,1,0,1
5.592,1910,1,1,0,1
5.594,2043,1,1,0,1
5.596,2127,1,1,0,1
5.598,2162,1,1,0,1
5.6,2174,1,1,0,1
5.602,2191,1,1,0,1
5.604,2222,1,1,0,1
5.606,2271,1,1,0,1
5.608,2331,1,1,0,1
5.61,2387,1,1,0,1
5.612,2425,1,1,0,1
5.614,2447,1,1,0,1
5.616,2461,1,1,0,1
5.618,2485,1,1,0,1
5.62,2518,1,1,0,1
5.622,2555,1,1,0,1
5.624,2577,1,1,0,1
5.626,2565,1,1,0,1
5.628,2518,1,1,0,1
5.63,2442,1,1,0,1
5.632,2348,1,1,0,1
5.634,2262,1,1,0,1
5.636,2199,1,1,0,1
5.638,2158,1,1,0,1
5.64,2126,1,1,0,1
5.642,2090,1,1,0,1
5.644,2033,1,1,0,1
5.646,1953,1,1,0,1
5.648,1859,1,1,0,1
5.65,1762,1,1,0,1
5.652,1685,1,1,0,1
5.654,1631,1,1,0,1
5.656,1599,1,1,0,1
5.658,1579,1,1,0,1
5.66,1561,1,1,0,1
5.662,1541,1,1,0,1
5.664,1514,1,1,0,1
5.666,1487,1,1,0,1
5.668,1471,1,1,0,1
5.67,1473,1,1,0,1
5.672,1491,1,1,0,1
5.674,1519,1,1,0,1
5.676,1543,1,1,0,1
5.678,1547,1,1,0,1
5.68,1530,1,1,0,1
5.682,1507,1,1,0,1
5.684,1501,1,1,0,1
5.686,1525,1,1,0,1
5.688,1570,1,1,0,1
5.69,1622,1,1,0,1
5.692,1666,1,1,0,1
5.694,1693,1,1,0,1
5.696,1695,1,1,0,1
