#Digilent WaveForms Logic Analyzer Acquisition
#Device Name: Discovery2
#Serial Number: SN:210321AA2ABB
#Date Time: 2024-08-13 19:42:37.619
#Sample rate: 500Hz
#Samples: 4096

Time (s),Data,DV,MISO,MOSI,SCK
-2.494,2115,1,1,0,1
-2.492,2463,1,1,0,1
-2.49,2670,1,1,0,1
-2.488,2566,1,1,0,1
-2.486,2166,1,1,0,1
-2.484,1781,1,1,0,1
-2.482,1597,1,1,0,1
-2.48,1647,1,1,0,1
-2.478,1951,1,1,0,1
-2.476,2317,1,1,0,1
-2.474,2585,1,1,0,1
-2.472,2591,1,1,0,1
-2.47,2265,1,1,0,1
-2.468,1839,1,1,0,1
-2.466,1588,1,1,0,1
-2.464,1556,1,1,0,1
-2.462,1787,1,1,0,1
-2.46,2166,1,1,0,1
-2.458,2501,1,1,0,1
-2.456,2653,1,1,0,1
-2.454,2469,1,1,0,1
-2.452,2074,1,1,0,1
-2.45,1784,1,1,0,1
-2.448,1705,1,1,0,1
-2.446,1870,1,1,0,1
-2.444,2242,1,1,0,1
-2.442,2598,1,1,0,1
-2.44,2804,1,1,0,1
-2.438,2687,1,1,0,1
-2.436,2270,1,1,0,1
-2.434,1860,1,1,0,1
-2.432,1650,1,1,0,1
-2.43,1675,1,1,0,1
-2.428,1953,1,1,0,1
-2.426,2291,1,1,0,1
-2.424,2532,1,1,0,1
-2.422,2514,1,1,0,1
-2.42,2167,1,1,0,1
-2.418,1733,1,1,0,1
-2.416,1475,1,1,0,1
-2.414,1441,1,1,0,1
-2.412,1671,1,1,0,1
-2.41,2041,1,1,0,1
-2.408,2357,1,1,0,1
-2.406,2471,1,1,0,1
-2.404,2244,1,1,0,1
-2.402,1809,1,1,0,1
-2.4,1489,1,1,0,1
-2.398,1386,1,1,0,1
-2.396,1535,1,1,0,1
-2.394,1900,1,1,0,1
-2.392,2262,1,1,0,1
-2.39,2483,1,1,0,1
-2.388,2395,1,1,0,1
-2.386,2014,1,1,0,1
-2.384,1649,1,1,0,1
-2.382,1481,1,1,0,1
-2.38,1539,1,1,0,1
-2.378,1845,1,1,0,1
-2.376,2211,1,1,0,1
-2.374,2477,1,1,0,1
-2.372,2479,1,1,0,1
-2.37,2149,1,1,0,1
-2.368,1719,1,1,0,1
-2.366,1465,1,1,0,1
-2.364,1435,1,1,0,1
-2.362,1670,1,1,0,1
-2.36,2043,1,1,0,1
-2.358,2361,1,1,0,1
-2.356,2481,1,1,0,1
-2.354,2262,1,1,0,1
-2.352,1835,1,1,0,1
-2.35,1521,1,1,0,1
-2.348,1426,1,1,0,1
-2.346,1594,1,1,0,1
-2.344,1986,1,1,0,1
-2.342,2386,1,1,0,1
-2.34,2669,1,1,0,1
-2.338,2667,1,1,0,1
-2.336,2403,1,1,0,1
-2.334,2183,1,1,0,1
-2.332,2191,1,1,0,1
-2.33,2463,1,1,0,1
-2.328,3017,1,1,0,1
-2.326,3642,1,1,0,1
-2.324,4027,1,1,0,1
-2.322,4059,1,1,0,1
-2.32,4030,1,1,0,1
-2.318,3819,1,1,0,1
-2.316,3602,1,1,0,1
-2.314,3429,1,1,0,1
-2.312,3382,1,1,0,1
-2.31,3374,1,1,0,1
-2.308,3242,1,1,0,1
-2.306,2863,1,1,0,1
-2.304,2121,1,1,0,1
-2.302,1147,1,1,0,1
-2.3,284,1,1,0,1
-2.298,15,1,1,0,1
-2.296,0,1,1,0,1
-2.294,0,1,1,0,1
-2.292,0,1,1,0,1
-2.29,5,1,1,0,1
-2.288,0,1,1,0,1
-2.286,0,1,1,0,1
-2.284,0,1,1,0,1
-2.282,0,1,1,0,1
-2.28,37,1,1,0,1
-2.278,360,1,1,0,1
-2.276,806,1,1,0,1
-2.274,1202,1,1,0,1
-2.272,1373,1,1,0,1
-2.27,1229,1,1,0,1
-2.268,994,1,1,0,1
-2.266,926,1,1,0,1
-2.264,1075,1,1,0,1
-2.262,1479,1,1,0,1
-2.26,2013,1,1,0,1
-2.258,2483,1,1,0,1
-2.256,2733,1,1,0,1
-2.254,2617,1,1,0,1
-2.252,2262,1,1,0,1
-2.25,1989,1,1,0,1
-2.248,1903,1,1,0,1
-2.246,2056,1,1,0,1
-2.244,2403,1,1,0,1
-2.242,2741,1,1,0,1
-2.24,2932,1,1,0,1
-2.238,2810,1,1,0,1
-2.236,2398,1,1,0,1
-2.234,1998,1,1,0,1
-2.232,1800,1,1,0,1
-2.23,1839,1,1,0,1
-2.228,2137,1,1,0,1
-2.226,2501,1,1,0,1
-2.224,2773,1,1,0,1
-2.222,2790,1,1,0,1
-2.22,2477,1,1,0,1
-2.218,2070,1,1,0,1
-2.216,1829,1,1,0,1
-2.214,1798,1,1,0,1
-2.212,2022,1,1,0,1
-2.21,2385,1,1,0,1
-2.208,2687,1,1,0,1
-2.206,2795,1,1,0,1
-2.204,2575,1,1,0,1
-2.202,2156,1,1,0,1
-2.2,1854,1,1,0,1
-2.198,1769,1,1,0,1
-2.196,1937,1,1,0,1
-2.194,2311,1,1,0,1
-2.192,2670,1,1,0,1
-2.19,2883,1,1,0,1
-2.188,2778,1,1,0,1
-2.186,2381,1,1,0,1
-2.184,1996,1,1,0,1
-2.182,1815,1,1,0,1
-2.18,1873,1,1,0,1
-2.178,2185,1,1,0,1
-2.176,2546,1,1,0,1
-2.174,2802,1,1,0,1
-2.172,2795,1,1,0,1
-2.17,2459,1,1,0,1
-2.168,2035,1,1,0,1
-2.166,1795,1,1,0,1
-2.164,1779,1,1,0,1
-2.162,2030,1,1,0,1
-2.16,2415,1,1,0,1
-2.158,2735,1,1,0,1
-2.156,2847,1,1,0,1
-2.154,2615,1,1,0,1
-2.152,2181,1,1,0,1
-2.15,1855,1,1,0,1
-2.148,1748,1,1,0,1
-2.146,1894,1,1,0,1
-2.144,2249,1,1,0,1
-2.142,2595,1,1,0,1
-2.14,2803,1,1,0,1
-2.138,2705,1,1,0,1
-2.136,2322,1,1,0,1
-2.134,1958,1,1,0,1
-2.132,1795,1,1,0,1
-2.13,1862,1,1,0,1
-2.128,2174,1,1,0,1
-2.126,2539,1,1,0,1
-2.124,2806,1,1,0,1
-2.122,2815,1,1,0,1
-2.12,2501,1,1,0,1
-2.118,2099,1,1,0,1
-2.116,1873,1,1,0,1
-2.114,1864,1,1,0,1
-2.112,2113,1,1,0,1
-2.11,2490,1,1,0,1
-2.108,2803,1,1,0,1
-2.106,2914,1,1,0,1
-2.104,2685,1,1,0,1
-2.102,2262,1,1,0,1
-2.1,1957,1,1,0,1
-2.098,1867,1,1,0,1
-2.096,2028,1,1,0,1
-2.094,2394,1,1,0,1
-2.092,2747,1,1,0,1
-2.09,2957,1,1,0,1
-2.088,2855,1,1,0,1
-2.086,2470,1,1,0,1
-2.084,2107,1,1,0,1
-2.082,1941,1,1,0,1
-2.08,2008,1,1,0,1
-2.078,2322,1,1,0,1
-2.076,2686,1,1,0,1
-2.074,2949,1,1,0,1
-2.072,2950,1,1,0,1
-2.07,2622,1,1,0,1
-2.068,2206,1,1,0,1
-2.066,1962,1,1,0,1
-2.064,1935,1,1,0,1
-2.062,2169,1,1,0,1
-2.06,2535,1,1,0,1
-2.058,2838,1,1,0,1
-2.056,2935,1,1,0,1
-2.054,2701,1,1,0,1
-2.052,2267,1,1,0,1
-2.05,1950,1,1,0,1
-2.048,1845,1,1,0,1
-2.046,1990,1,1,0,1
-2.044,2341,1,1,0,1
-2.042,2677,1,1,0,1
-2.04,2869,1,1,0,1
-2.038,2747,1,1,0,1
-2.036,2345,1,1,0,1
-2.034,1963,1,1,0,1
-2.032,1783,1,1,0,1
-2.03,1835,1,1,0,1
-2.028,2131,1,1,0,1
-2.026,2478,1,1,0,1
-2.024,2727,1,1,0,1
-2.022,2713,1,1,0,1
-2.02,2365,1,1,0,1
-2.018,1917,1,1,0,1
-2.016,1634,1,1,0,1
-2.014,1566,1,1,0,1
-2.012,1765,1,1,0,1
-2.01,2106,1,1,0,1
-2.008,2401,1,1,0,1
-2.006,2508,1,1,0,1
-2.004,2281,1,1,0,1
-2.002,1852,1,1,0,1
-2,1538,1,1,0,1
-1.998,1428,1,1,0,1
-1.996,1565,1,1,0,1
-1.994,1900,1,1,0,1
-1.992,2221,1,1,0,1
-1.99,2389,1,1,0,1
-1.988,2239,1,1,0,1
-1.986,1809,1,1,0,1
-1.984,1409,1,1,0,1
-1.982,1213,1,1,0,1
-1.98,1255,1,1,0,1
-1.978,1550,1,1,0,1
-1.976,1903,1,1,0,1
-1.974,2161,1,1,0,1
-1.972,2155,1,1,0,1
-1.97,1825,1,1,0,1
-1.968,1407,1,1,0,1
-1.966,1163,1,1,0,1
-1.964,1139,1,1,0,1
-1.962,1381,1,1,0,1
-1.96,1762,1,1,0,1
-1.958,2087,1,1,0,1
-1.956,2212,1,1,0,1
-1.954,1999,1,1,0,1
-1.952,1583,1,1,0,1
-1.95,1273,1,1,0,1
-1.948,1169,1,1,0,1
-1.946,1314,1,1,0,1
-1.944,1667,1,1,0,1
-1.942,2013,1,1,0,1
-1.94,2223,1,1,0,1
-1.938,2125,1,1,0,1
-1.936,1742,1,1,0,1
-1.934,1389,1,1,0,1
-1.932,1235,1,1,0,1
-1.93,1316,1,1,0,1
-1.928,1643,1,1,0,1
-1.926,2021,1,1,0,1
-1.924,2291,1,1,0,1
-1.922,2291,1,1,0,1
-1.92,1958,1,1,0,1
-1.918,1535,1,1,0,1
-1.916,1291,1,1,0,1
-1.914,1268,1,1,0,1
-1.912,1507,1,1,0,1
-1.91,1875,1,1,0,1
-1.908,2179,1,1,0,1
-1.906,2279,1,1,0,1
-1.904,2046,1,1,0,1
-1.902,1625,1,1,0,1
-1.9,1326,1,1,0,1
-1.898,1251,1,1,0,1
-1.896,1437,1,1,0,1
-1.894,1827,1,1,0,1
-1.892,2204,1,1,0,1
-1.89,2427,1,1,0,1
-1.888,2329,1,1,0,1
-1.886,1939,1,1,0,1
-1.884,1569,1,1,0,1
-1.882,1392,1,1,0,1
-1.88,1446,1,1,0,1
-1.878,1747,1,1,0,1
-1.876,2105,1,1,0,1
-1.874,2365,1,1,0,1
-1.872,2365,1,1,0,1
-1.87,2037,1,1,0,1
-1.868,1624,1,1,0,1
-1.866,1387,1,1,0,1
-1.864,1372,1,1,0,1
-1.862,1614,1,1,0,1
-1.86,1987,1,1,0,1
-1.858,2298,1,1,0,1
-1.856,2403,1,1,0,1
-1.854,2166,1,1,0,1
-1.852,1731,1,1,0,1
-1.85,1418,1,1,0,1
-1.848,1321,1,1,0,1
-1.846,1479,1,1,0,1
-1.844,1843,1,1,0,1
-1.842,2196,1,1,0,1
-1.84,2393,1,1,0,1
-1.838,2267,1,1,0,1
-1.836,1855,1,1,0,1
-1.834,1468,1,1,0,1
-1.832,1289,1,1,0,1
-1.83,1350,1,1,0,1
-1.828,1667,1,1,0,1
-1.826,2042,1,1,0,1
-1.824,2323,1,1,0,1
-1.822,2341,1,1,0,1
-1.82,2027,1,1,0,1
-1.818,1624,1,1,0,1
-1.816,1395,1,1,0,1
-1.814,1389,1,1,0,1
-1.812,1646,1,1,0,1
-1.81,2031,1,1,0,1
-1.808,2355,1,1,0,1
-1.806,2467,1,1,0,1
-1.804,2234,1,1,0,1
-1.802,1801,1,1,0,1
-1.8,1485,1,1,0,1
-1.798,1379,1,1,0,1
-1.796,1523,1,1,0,1
-1.794,1870,1,1,0,1
-1.792,2202,1,1,0,1
-1.79,2386,1,1,0,1
-1.788,2263,1,1,0,1
-1.786,1869,1,1,0,1
-1.784,1513,1,1,0,1
-1.782,1367,1,1,0,1
-1.78,1461,1,1,0,1
-1.778,1803,1,1,0,1
-1.776,2197,1,1,0,1
-1.774,2484,1,1,0,1
-1.772,2499,1,1,0,1
-1.77,2175,1,1,0,1
-1.768,1763,1,1,0,1
-1.766,1519,1,1,0,1
-1.764,1494,1,1,0,1
-1.762,1724,1,1,0,1
-1.76,2086,1,1,0,1
-1.758,2383,1,1,0,1
-1.756,2478,1,1,0,1
-1.754,2237,1,1,0,1
-1.752,1802,1,1,0,1
-1.75,1491,1,1,0,1
-1.748,1393,1,1,0,1
-1.746,1550,1,1,0,1
-1.744,1909,1,1,0,1
-1.742,2258,1,1,0,1
-1.74,2459,1,1,0,1
-1.738,2348,1,1,0,1
-1.736,1956,1,1,0,1
-1.734,1591,1,1,0,1
-1.732,1427,1,1,0,1
-1.73,1496,1,1,0,1
-1.728,1810,1,1,0,1
-1.726,2175,1,1,0,1
-1.724,2439,1,1,0,1
-1.722,2437,1,1,0,1
-1.72,2106,1,1,0,1
-1.718,1692,1,1,0,1
-1.716,1453,1,1,0,1
-1.714,1435,1,1,0,1
-1.712,1683,1,1,0,1
-1.71,2059,1,1,0,1
-1.708,2371,1,1,0,1
-1.706,2475,1,1,0,1
-1.704,2242,1,1,0,1
-1.702,1810,1,1,0,1
-1.7,1497,1,1,0,1
-1.698,1397,1,1,0,1
-1.696,1550,1,1,0,1
-1.694,1909,1,1,0,1
-1.692,2253,1,1,0,1
-1.69,2447,1,1,0,1
-1.688,2330,1,1,0,1
-1.686,1938,1,1,0,1
-1.684,1583,1,1,0,1
-1.682,1437,1,1,0,1
-1.68,1530,1,1,0,1
-1.678,1874,1,1,0,1
-1.676,2267,1,1,0,1
-1.674,2550,1,1,0,1
-1.672,2563,1,1,0,1
-1.67,2235,1,1,0,1
-1.668,1817,1,1,0,1
-1.666,1570,1,1,0,1
-1.664,1541,1,1,0,1
-1.662,1771,1,1,0,1
-1.66,2135,1,1,0,1
-1.658,2438,1,1,0,1
-1.656,2537,1,1,0,1
-1.654,2298,1,1,0,1
-1.652,1866,1,1,0,1
-1.65,1554,1,1,0,1
-1.648,1454,1,1,0,1
-1.646,1610,1,1,0,1
-1.644,1969,1,1,0,1
-1.642,2318,1,1,0,1
-1.64,2519,1,1,0,1
-1.638,2407,1,1,0,1
-1.636,2010,1,1,0,1
-1.634,1642,1,1,0,1
-1.632,1473,1,1,0,1
-1.63,1541,1,1,0,1
-1.628,1857,1,1,0,1
-1.626,2229,1,1,0,1
-1.624,2498,1,1,0,1
-1.622,2499,1,1,0,1
-1.62,2169,1,1,0,1
-1.618,1757,1,1,0,1
-1.616,1521,1,1,0,1
-1.614,1505,1,1,0,1
-1.612,1749,1,1,0,1
-1.61,2121,1,1,0,1
-1.608,2426,1,1,0,1
-1.606,2523,1,1,0,1
-1.604,2279,1,1,0,1
-1.602,1845,1,1,0,1
-1.6,1533,1,1,0,1
-1.598,1434,1,1,0,1
-1.596,1589,1,1,0,1
-1.594,1943,1,1,0,1
-1.592,2287,1,1,0,1
-1.59,2489,1,1,0,1
-1.588,2389,1,1,0,1
-1.586,2020,1,1,0,1
-1.584,1689,1,1,0,1
-1.582,1558,1,1,0,1
-1.58,1655,1,1,0,1
-1.578,1991,1,1,0,1
-1.576,2374,1,1,0,1
-1.574,2645,1,1,0,1
-1.572,2641,1,1,0,1
-1.57,2301,1,1,0,1
-1.568,1874,1,1,0,1
-1.566,1617,1,1,0,1
-1.564,1579,1,1,0,1
-1.562,1803,1,1,0,1
-1.56,2163,1,1,0,1
-1.558,2466,1,1,0,1
-1.556,2569,1,1,0,1
-1.554,2333,1,1,0,1
-1.552,1906,1,1,0,1
-1.55,1602,1,1,0,1
-1.548,1508,1,1,0,1
-1.546,1667,1,1,0,1
-1.544,2026,1,1,0,1
-1.542,2375,1,1,0,1
-1.54,2578,1,1,0,1
-1.538,2467,1,1,0,1
-1.536,2079,1,1,0,1
-1.534,1721,1,1,0,1
-1.532,1565,1,1,0,1
-1.53,1645,1,1,0,1
-1.528,1966,1,1,0,1
-1.526,2331,1,1,0,1
-1.524,2583,1,1,0,1
-1.522,2566,1,1,0,1
-1.52,2219,1,1,0,1
-1.518,1791,1,1,0,1
-1.516,1551,1,1,0,1
-1.514,1541,1,1,0,1
-1.512,1799,1,1,0,1
-1.51,2187,1,1,0,1
-1.508,2510,1,1,0,1
-1.506,2622,1,1,0,1
-1.504,2399,1,1,0,1
-1.502,1986,1,1,0,1
-1.5,1697,1,1,0,1
-1.498,1623,1,1,0,1
-1.496,1800,1,1,0,1
-1.494,2174,1,1,0,1
-1.492,2533,1,1,0,1
-1.49,2739,1,1,0,1
-1.488,2629,1,1,0,1
-1.486,2238,1,1,0,1
-1.484,1876,1,1,0,1
-1.482,1708,1,1,0,1
-1.48,1775,1,1,0,1
-1.478,2086,1,1,0,1
-1.476,2439,1,1,0,1
-1.474,2682,1,1,0,1
-1.472,2653,1,1,0,1
-1.47,2294,1,1,0,1
-1.468,1854,1,1,0,1
-1.466,1595,1,1,0,1
-1.464,1562,1,1,0,1
-1.462,1789,1,1,0,1
-1.46,2146,1,1,0,1
-1.458,2441,1,1,0,1
-1.456,2533,1,1,0,1
-1.454,2286,1,1,0,1
-1.452,1845,1,1,0,1
-1.45,1521,1,1,0,1
-1.448,1407,1,1,0,1
-1.446,1550,1,1,0,1
-1.444,1894,1,1,0,1
-1.442,2233,1,1,0,1
-1.44,2430,1,1,0,1
-1.438,2318,1,1,0,1
-1.436,1930,1,1,0,1
-1.434,1575,1,1,0,1
-1.432,1418,1,1,0,1
-1.43,1490,1,1,0,1
-1.428,1805,1,1,0,1
-1.426,2169,1,1,0,1
-1.424,2429,1,1,0,1
-1.422,2425,1,1,0,1
-1.42,2095,1,1,0,1
-1.418,1689,1,1,0,1
-1.416,1459,1,1,0,1
-1.414,1453,1,1,0,1
-1.412,1709,1,1,0,1
-1.41,2086,1,1,0,1
-1.408,2398,1,1,0,1
-1.406,2502,1,1,0,1
-1.404,2266,1,1,0,1
-1.402,1839,1,1,0,1
-1.4,1533,1,1,0,1
-1.398,1433,1,1,0,1
-1.396,1582,1,1,0,1
-1.394,1923,1,1,0,1
-1.392,2245,1,1,0,1
-1.39,2423,1,1,0,1
-1.388,2302,1,1,0,1
-1.386,1917,1,1,0,1
-1.384,1579,1,1,0,1
-1.382,1454,1,1,0,1
-1.38,1572,1,1,0,1
-1.378,1939,1,1,0,1
-1.376,2365,1,1,0,1
-1.374,2706,1,1,0,1
-1.372,2799,1,1,0,1
-1.37,2601,1,1,0,1
-1.368,2355,1,1,0,1
-1.366,2322,1,1,0,1
-1.364,2542,1,1,0,1
-1.362,3047,1,1,0,1
-1.36,3685,1,1,0,1
-1.358,4037,1,1,0,1
-1.356,4061,1,1,0,1
-1.354,4061,1,1,0,1
-1.352,3869,1,1,0,1
-1.35,3589,1,1,0,1
-1.348,3335,1,1,0,1
-1.346,3190,1,1,0,1
-1.344,3143,1,1,0,1
-1.342,3011,1,1,0,1
-1.34,2686,1,1,0,1
-1.338,2017,1,1,0,1
-1.336,1050,1,1,0,1
-1.334,167,1,1,0,1
-1.332,8,1,1,0,1
-1.33,0,1,1,0,1
-1.328,0,1,1,0,1
-1.326,0,1,1,0,1
-1.324,0,1,1,0,1
-1.322,0,1,1,0,1
-1.32,0,1,1,0,1
-1.318,0,1,1,0,1
-1.316,0,1,1,0,1
-1.314,0,1,1,0,1
-1.312,213,1,1,0,1
-1.31,633,1,1,0,1
-1.308,1051,1,1,0,1
-1.306,1307,1,1,0,1
-1.304,1252,1,1,0,1
-1.302,1017,1,1,0,1
-1.3,905,1,1,0,1
-1.298,1002,1,1,0,1
-1.296,1347,1,1,0,1
-1.294,1881,1,1,0,1
-1.292,2388,1,1,0,1
-1.29,2717,1,1,0,1
-1.288,2701,1,1,0,1
-1.286,2374,1,1,0,1
-1.284,2055,1,1,0,1
-1.282,1915,1,1,0,1
-1.28,2003,1,1,0,1
-1.278,2331,1,1,0,1
-1.276,2697,1,1,0,1
-1.274,2950,1,1,0,1
-1.272,2930,1,1,0,1
-1.27,2579,1,1,0,1
-1.268,2142,1,1,0,1
-1.266,1882,1,1,0,1
-1.264,1849,1,1,0,1
-1.262,2085,1,1,0,1
-1.26,2447,1,1,0,1
-1.258,2748,1,1,0,1
-1.256,2843,1,1,0,1
-1.254,2598,1,1,0,1
-1.252,2166,1,1,0,1
-1.25,1859,1,1,0,1
-1.248,1761,1,1,0,1
-1.246,1916,1,1,0,1
-1.244,2271,1,1,0,1
-1.242,2610,1,1,0,1
-1.24,2799,1,1,0,1
-1.238,2677,1,1,0,1
-1.236,2279,1,1,0,1
-1.234,1917,1,1,0,1
-1.232,1759,1,1,0,1
-1.23,1839,1,1,0,1
-1.228,2166,1,1,0,1
-1.226,2538,1,1,0,1
-1.224,2803,1,1,0,1
-1.222,2798,1,1,0,1
-1.22,2465,1,1,0,1
-1.218,2053,1,1,0,1
-1.216,1813,1,1,0,1
-1.214,1791,1,1,0,1
-1.212,2031,1,1,0,1
-1.21,2402,1,1,0,1
-1.208,2711,1,1,0,1
-1.206,2814,1,1,0,1
-1.204,2578,1,1,0,1
-1.202,2143,1,1,0,1
-1.2,1833,1,1,0,1
-1.198,1739,1,1,0,1
-1.196,1903,1,1,0,1
-1.194,2267,1,1,0,1
-1.192,2617,1,1,0,1
-1.19,2811,1,1,0,1
-1.188,2686,1,1,0,1
-1.186,2283,1,1,0,1
-1.184,1916,1,1,0,1
-1.182,1758,1,1,0,1
-1.18,1842,1,1,0,1
-1.178,2173,1,1,0,1
-1.176,2553,1,1,0,1
-1.174,2831,1,1,0,1
-1.172,2838,1,1,0,1
-1.17,2515,1,1,0,1
-1.168,2111,1,1,0,1
-1.166,1877,1,1,0,1
-1.164,1859,1,1,0,1
-1.162,2099,1,1,0,1
-1.16,2462,1,1,0,1
-1.158,2769,1,1,0,1
-1.156,2867,1,1,0,1
-1.154,2630,1,1,0,1
-1.152,2205,1,1,0,1
-1.15,1905,1,1,0,1
-1.148,1819,1,1,0,1
-1.146,1986,1,1,0,1
-1.144,2348,1,1,0,1
-1.142,2697,1,1,0,1
-1.14,2894,1,1,0,1
-1.138,2779,1,1,0,1
-1.136,2393,1,1,0,1
-1.134,2044,1,1,0,1
-1.132,1895,1,1,0,1
-1.13,1979,1,1,0,1
-1.128,2302,1,1,0,1
-1.126,2669,1,1,0,1
-1.124,2927,1,1,0,1
-1.122,2919,1,1,0,1
-1.12,2586,1,1,0,1
-1.118,2179,1,1,0,1
-1.116,1947,1,1,0,1
-1.114,1938,1,1,0,1
-1.112,2189,1,1,0,1
-1.11,2557,1,1,0,1
-1.108,2857,1,1,0,1
-1.106,2941,1,1,0,1
-1.104,2686,1,1,0,1
-1.102,2249,1,1,0,1
-1.1,1939,1,1,0,1
-1.098,1847,1,1,0,1
-1.096,2014,1,1,0,1
-1.094,2383,1,1,0,1
-1.092,2733,1,1,0,1
-1.09,2927,1,1,0,1
-1.088,2799,1,1,0,1
-1.086,2391,1,1,0,1
-1.084,2011,1,1,0,1
-1.082,1833,1,1,0,1
-1.08,1885,1,1,0,1
-1.078,2181,1,1,0,1
-1.076,2525,1,1,0,1
-1.074,2779,1,1,0,1
-1.072,2775,1,1,0,1
-1.07,2457,1,1,0,1
-1.068,2062,1,1,0,1
-1.066,1835,1,1,0,1
-1.064,1820,1,1,0,1
-1.062,2061,1,1,0,1
-1.06,2413,1,1,0,1
-1.058,2697,1,1,0,1
-1.056,2762,1,1,0,1
-1.054,2487,1,1,0,1
-1.052,2030,1,1,0,1
-1.05,1702,1,1,0,1
-1.048,1585,1,1,0,1
-1.046,1718,1,1,0,1
-1.044,2047,1,1,0,1
-1.042,2362,1,1,0,1
-1.04,2519,1,1,0,1
-1.038,2359,1,1,0,1
-1.036,1923,1,1,0,1
-1.034,1527,1,1,0,1
-1.032,1342,1,1,0,1
-1.03,1397,1,1,0,1
-1.028,1701,1,1,0,1
-1.026,2053,1,1,0,1
-1.024,2298,1,1,0,1
-1.022,2274,1,1,0,1
-1.02,1925,1,1,0,1
-1.018,1507,1,1,0,1
-1.016,1268,1,1,0,1
-1.014,1252,1,1,0,1
-1.012,1493,1,1,0,1
-1.01,1849,1,1,0,1
-1.008,2135,1,1,0,1
-1.006,2211,1,1,0,1
-1.004,1949,1,1,0,1
-1.002,1513,1,1,0,1
-1,1205,1,1,0,1
-0.998,1110,1,1,0,1
-0.996,1272,1,1,0,1
-0.994,1630,1,1,0,1
-0.992,1969,1,1,0,1
-0.99,2153,1,1,0,1
-0.988,2019,1,1,0,1
-0.986,1619,1,1,0,1
-0.984,1266,1,1,0,1
-0.982,1126,1,1,0,1
-0.98,1223,1,1,0,1
-0.978,1559,1,1,0,1
-0.976,1931,1,1,0,1
-0.974,2193,1,1,0,1
-0.972,2179,1,1,0,1
-0.97,1841,1,1,0,1
-0.968,1435,1,1,0,1
-0.966,1215,1,1,0,1
-0.964,1219,1,1,0,1
-0.962,1482,1,1,0,1
-0.96,1866,1,1,0,1
-0.958,2185,1,1,0,1
-0.956,2291,1,1,0,1
-0.954,2058,1,1,0,1
-0.952,1638,1,1,0,1
-0.95,1347,1,1,0,1
-0.948,1269,1,1,0,1
-0.946,1446,1,1,0,1
-0.944,1815,1,1,0,1
-0.9419999999999999,2162,1,1,0,1
-0.9399999999999999,2347,1,1,0,1
-0.9379999999999999,2215,1,1,0,1
-0.9360000000000001,1809,1,1,0,1
-0.9340000000000001,1443,1,1,0,1
-0.9320000000000001,1281,1,1,0,1
-0.93,1355,1,1,0,1
-0.928,1674,1,1,0,1
-0.926,2035,1,1,0,1
-0.924,2291,1,1,0,1
-0.922,2271,1,1,0,1
-0.92,1929,1,1,0,1
-0.918,1519,1,1,0,1
-0.916,1295,1,1,0,1
-0.914,1295,1,1,0,1
-0.912,1559,1,1,0,1
-0.91,1945,1,1,0,1
-0.908,2264,1,1,0,1
-0.906,2370,1,1,0,1
-0.904,2134,1,1,0,1
-0.902,1717,1,1,0,1
-0.9,1424,1,1,0,1
-0.898,1335,1,1,0,1
-0.896,1493,1,1,0,1
-0.894,1838,1,1,0,1
-0.892,2163,1,1,0,1
-0.89,2335,1,1,0,1
-0.888,2197,1,1,0,1
-0.886,1801,1,1,0,1
-0.884,1454,1,1,0,1
-0.882,1314,1,1,0,1
-0.88,1405,1,1,0,1
-0.878,1734,1,1,0,1
-0.876,2099,1,1,0,1
-0.874,2356,1,1,0,1
-0.872,2341,1,1,0,1
-0.87,2002,1,1,0,1
-0.868,1602,1,1,0,1
-0.866,1387,1,1,0,1
-0.864,1397,1,1,0,1
-0.862,1667,1,1,0,1
-0.86,2053,1,1,0,1
-0.858,2362,1,1,0,1
-0.856,2452,1,1,0,1
-0.854,2202,1,1,0,1
-0.852,1771,1,1,0,1
-0.85,1471,1,1,0,1
-0.848,1383,1,1,0,1
-0.846,1546,1,1,0,1
-0.844,1898,1,1,0,1
-0.842,2228,1,1,0,1
-0.84,2403,1,1,0,1
-0.838,2263,1,1,0,1
-0.836,1861,1,1,0,1
-0.834,1506,1,1,0,1
-0.832,1357,1,1,0,1
-0.83,1445,1,1,0,1
-0.828,1772,1,1,0,1
-0.826,2139,1,1,0,1
-0.824,2394,1,1,0,1
-0.822,2373,1,1,0,1
-0.82,2027,1,1,0,1
-0.8179999999999999,1619,1,1,0,1
-0.8159999999999999,1388,1,1,0,1
-0.8139999999999999,1375,1,1,0,1
-0.8120000000000001,1620,1,1,0,1
-0.8100000000000001,1981,1,1,0,1
-0.8080000000000001,2282,1,1,0,1
-0.806,2373,1,1,0,1
-0.804,2131,1,1,0,1
-0.802,1715,1,1,0,1
-0.8,1435,1,1,0,1
-0.798,1368,1,1,0,1
-0.796,1553,1,1,0,1
-0.794,1925,1,1,0,1
-0.792,2271,1,1,0,1
-0.79,2457,1,1,0,1
-0.788,2322,1,1,0,1
-0.786,1917,1,1,0,1
-0.784,1561,1,1,0,1
-0.782,1406,1,1,0,1
-0.78,1490,1,1,0,1
-0.778,1814,1,1,0,1
-0.776,2173,1,1,0,1
-0.774,2419,1,1,0,1
-0.772,2391,1,1,0,1
-0.77,2039,1,1,0,1
-0.768,1626,1,1,0,1
-0.766,1395,1,1,0,1
-0.764,1392,1,1,0,1
-0.762,1654,1,1,0,1
-0.76,2037,1,1,0,1
-0.758,2361,1,1,0,1
-0.756,2471,1,1,0,1
-0.754,2238,1,1,0,1
-0.752,1822,1,1,0,1
-0.75,1533,1,1,0,1
-0.748,1457,1,1,0,1
-0.746,1633,1,1,0,1
-0.744,1995,1,1,0,1
-0.742,2334,1,1,0,1
-0.74,2514,1,1,0,1
-0.738,2373,1,1,0,1
-0.736,1966,1,1,0,1
-0.734,1607,1,1,0,1
-0.732,1446,1,1,0,1
-0.73,1518,1,1,0,1
-0.728,1828,1,1,0,1
-0.726,2178,1,1,0,1
-0.724,2417,1,1,0,1
-0.722,2386,1,1,0,1
-0.72,2034,1,1,0,1
-0.718,1628,1,1,0,1
-0.716,1411,1,1,0,1
-0.714,1418,1,1,0,1
-0.712,1687,1,1,0,1
-0.71,2071,1,1,0,1
-0.708,2382,1,1,0,1
-0.706,2477,1,1,0,1
-0.704,2231,1,1,0,1
-0.702,1810,1,1,0,1
-0.7,1519,1,1,0,1
-0.698,1443,1,1,0,1
-0.696,1620,1,1,0,1
-0.694,1987,1,1,0,1
-0.6919999999999999,2327,1,1,0,1
-0.6899999999999999,2503,1,1,0,1
-0.6879999999999999,2354,1,1,0,1
-0.6860000000000001,1935,1,1,0,1
-0.6840000000000001,1567,1,1,0,1
-0.6820000000000001,1406,1,1,0,1
-0.68,1492,1,1,0,1
-0.678,1829,1,1,0,1
-0.676,2215,1,1,0,1
-0.674,2487,1,1,0,1
-0.672,2482,1,1,0,1
-0.67,2153,1,1,0,1
-0.668,1758,1,1,0,1
-0.666,1542,1,1,0,1
-0.664,1547,1,1,0,1
-0.662,1814,1,1,0,1
-0.66,2196,1,1,0,1
-0.658,2505,1,1,0,1
-0.656,2593,1,1,0,1
-0.654,2338,1,1,0,1
-0.652,1905,1,1,0,1
-0.65,1604,1,1,0,1
-0.648,1513,1,1,0,1
-0.646,1679,1,1,0,1
-0.644,2031,1,1,0,1
-0.642,2358,1,1,0,1
-0.64,2523,1,1,0,1
-0.638,2370,1,1,0,1
-0.636,1951,1,1,0,1
-0.634,1586,1,1,0,1
-0.632,1428,1,1,0,1
-0.63,1508,1,1,0,1
-0.628,1829,1,1,0,1
-0.626,2191,1,1,0,1
-0.624,2445,1,1,0,1
-0.622,2426,1,1,0,1
-0.62,2086,1,1,0,1
-0.618,1681,1,1,0,1
-0.616,1457,1,1,0,1
-0.614,1453,1,1,0,1
-0.612,1708,1,1,0,1
-0.61,2079,1,1,0,1
-0.608,2381,1,1,0,1
-0.606,2469,1,1,0,1
-0.604,2225,1,1,0,1
-0.602,1814,1,1,0,1
-0.6,1542,1,1,0,1
-0.598,1480,1,1,0,1
-0.596,1670,1,1,0,1
-0.594,2039,1,1,0,1
-0.592,2385,1,1,0,1
-0.59,2566,1,1,0,1
-0.588,2419,1,1,0,1
-0.586,2005,1,1,0,1
-0.584,1641,1,1,0,1
-0.582,1483,1,1,0,1
-0.58,1565,1,1,0,1
-0.578,1892,1,1,0,1
-0.576,2261,1,1,0,1
-0.574,2518,1,1,0,1
-0.572,2494,1,1,0,1
-0.57,2149,1,1,0,1
-0.5679999999999999,1741,1,1,0,1
-0.5659999999999999,1517,1,1,0,1
-0.5639999999999999,1521,1,1,0,1
-0.5620000000000001,1787,1,1,0,1
-0.5600000000000001,2173,1,1,0,1
-0.5580000000000001,2487,1,1,0,1
-0.556,2585,1,1,0,1
-0.554,2346,1,1,0,1
-0.552,1935,1,1,0,1
-0.55,1655,1,1,0,1
-0.548,1585,1,1,0,1
-0.546,1761,1,1,0,1
-0.544,2119,1,1,0,1
-0.542,2446,1,1,0,1
-0.54,2613,1,1,0,1
-0.538,2458,1,1,0,1
-0.536,2045,1,1,0,1
-0.534,1693,1,1,0,1
-0.532,1549,1,1,0,1
-0.53,1644,1,1,0,1
-0.528,1977,1,1,0,1
-0.526,2343,1,1,0,1
-0.524,2595,1,1,0,1
-0.522,2569,1,1,0,1
-0.52,2225,1,1,0,1
-0.518,1823,1,1,0,1
-0.516,1610,1,1,0,1
-0.514,1626,1,1,0,1
-0.512,1905,1,1,0,1
-0.51,2298,1,1,0,1
-0.508,2615,1,1,0,1
-0.506,2705,1,1,0,1
-0.504,2445,1,1,0,1
-0.502,1999,1,1,0,1
-0.5,1683,1,1,0,1
-0.498,1581,1,1,0,1
-0.496,1739,1,1,0,1
-0.494,2093,1,1,0,1
-0.492,2423,1,1,0,1
-0.49,2601,1,1,0,1
-0.488,2455,1,1,0,1
-0.486,2045,1,1,0,1
-0.484,1687,1,1,0,1
-0.482,1530,1,1,0,1
-0.48,1608,1,1,0,1
-0.478,1918,1,1,0,1
-0.476,2260,1,1,0,1
-0.474,2486,1,1,0,1
-0.472,2438,1,1,0,1
-0.47,2067,1,1,0,1
-0.468,1633,1,1,0,1
-0.466,1381,1,1,0,1
-0.464,1358,1,1,0,1
-0.462,1605,1,1,0,1
-0.46,1966,1,1,0,1
-0.458,2261,1,1,0,1
-0.456,2345,1,1,0,1
-0.454,2097,1,1,0,1
-0.452,1683,1,1,0,1
-0.45,1411,1,1,0,1
-0.448,1358,1,1,0,1
-0.446,1565,1,1,0,1
-0.444,1956,1,1,0,1
-0.442,2314,1,1,0,1
-0.44,2505,1,1,0,1
-0.438,2371,1,1,0,1
-0.436,1970,1,1,0,1
-0.434,1618,1,1,0,1
-0.432,1462,1,1,0,1
-0.43,1541,1,1,0,1
-0.428,1855,1,1,0,1
-0.426,2206,1,1,0,1
-0.424,2450,1,1,0,1
-0.422,2415,1,1,0,1
-0.42,2065,1,1,0,1
-0.418,1654,1,1,0,1
-0.416,1433,1,1,0,1
-0.414,1439,1,1,0,1
-0.412,1710,1,1,0,1
-0.41,2095,1,1,0,1
-0.408,2409,1,1,0,1
-0.406,2503,1,1,0,1
-0.404,2259,1,1,0,1
-0.402,1841,1,1,0,1
-0.4,1560,1,1,0,1
-0.398,1499,1,1,0,1
-0.396,1707,1,1,0,1
-0.394,2119,1,1,0,1
-0.392,2527,1,1,0,1
-0.39,2806,1,1,0,1
-0.388,2796,1,1,0,1
-0.386,2555,1,1,0,1
-0.384,2398,1,1,0,1
-0.382,2479,1,1,0,1
-0.38,2822,1,1,0,1
-0.378,3406,1,1,0,1
-0.376,3973,1,1,0,1
-0.374,4057,1,1,0,1
-0.372,4061,1,1,0,1
-0.37,3929,1,1,0,1
-0.368,3534,1,1,0,1
-0.366,3142,1,1,0,1
-0.364,2838,1,1,0,1
-0.362,2703,1,1,0,1
-0.36,2619,1,1,0,1
-0.358,2423,1,1,0,1
-0.356,1979,1,1,0,1
-0.354,1186,1,1,0,1
-0.352,257,1,1,0,1
-0.35,13,1,1,0,1
-0.348,0,1,1,0,1
-0.346,0,1,1,0,1
-0.344,0,1,1,0,1
-0.342,12,1,1,0,1
-0.34,33,1,1,0,1
-0.338,2,1,1,0,1
-0.336,0,1,1,0,1
-0.334,0,1,1,0,1
-0.332,0,1,1,0,1
-0.33,119,1,1,0,1
-0.328,535,1,1,0,1
-0.326,1026,1,1,0,1
-0.324,1435,1,1,0,1
-0.322,1586,1,1,0,1
-0.32,1423,1,1,0,1
-0.318,1203,1,1,0,1
-0.316,1165,1,1,0,1
-0.314,1346,1,1,0,1
-0.312,1773,1,1,0,1
-0.31,2290,1,1,0,1
-0.308,2708,1,1,0,1
-0.306,2878,1,1,0,1
-0.304,2683,1,1,0,1
-0.302,2293,1,1,0,1
-0.3,2015,1,1,0,1
-0.298,1937,1,1,0,1
-0.296,2101,1,1,0,1
-0.294,2441,1,1,0,1
-0.292,2746,1,1,0,1
-0.29,2889,1,1,0,1
-0.288,2714,1,1,0,1
-0.286,2281,1,1,0,1
-0.284,1901,1,1,0,1
-0.282,1732,1,1,0,1
-0.28,1805,1,1,0,1
-0.278,2121,1,1,0,1
-0.276,2475,1,1,0,1
-0.274,2722,1,1,0,1
-0.272,2700,1,1,0,1
-0.27,2361,1,1,0,1
-0.268,1966,1,1,0,1
-0.266,1756,1,1,0,1
-0.264,1769,1,1,0,1
-0.262,2035,1,1,0,1
-0.26,2409,1,1,0,1
-0.258,2707,1,1,0,1
-0.256,2782,1,1,0,1
-0.254,2522,1,1,0,1
-0.252,2099,1,1,0,1
-0.25,1815,1,1,0,1
-0.248,1750,1,1,0,1
-0.246,1938,1,1,0,1
-0.244,2302,1,1,0,1
-0.242,2638,1,1,0,1
-0.24,2809,1,1,0,1
-0.238,2658,1,1,0,1
-0.236,2239,1,1,0,1
-0.234,1873,1,1,0,1
-0.232,1710,1,1,0,1
-0.23,1787,1,1,0,1
-0.228,2108,1,1,0,1
-0.226,2471,1,1,0,1
-0.224,2730,1,1,0,1
-0.222,2715,1,1,0,1
-0.22,2389,1,1,0,1
-0.218,2010,1,1,0,1
-0.216,1818,1,1,0,1
-0.214,1845,1,1,0,1
-0.212,2127,1,1,0,1
-0.21,2507,1,1,0,1
-0.208,2805,1,1,0,1
-0.206,2875,1,1,0,1
-0.204,2604,1,1,0,1
-0.202,2164,1,1,0,1
-0.2,1863,1,1,0,1
-0.198,1780,1,1,0,1
-0.196,1950,1,1,0,1
-0.194,2298,1,1,0,1
-0.192,2619,1,1,0,1
-0.19,2778,1,1,0,1
-0.188,2623,1,1,0,1
-0.186,2217,1,1,0,1
-0.184,1873,1,1,0,1
-0.182,1745,1,1,0,1
-0.18,1860,1,1,0,1
-0.178,2212,1,1,0,1
-0.176,2590,1,1,0,1
-0.174,2851,1,1,0,1
-0.172,2831,1,1,0,1
-0.17,2486,1,1,0,1
-0.168,2082,1,1,0,1
-0.166,1858,1,1,0,1
-0.164,1863,1,1,0,1
-0.162,2132,1,1,0,1
-0.16,2507,1,1,0,1
-0.158,2810,1,1,0,1
-0.156,2895,1,1,0,1
-0.154,2646,1,1,0,1
-0.152,2231,1,1,0,1
-0.15,1957,1,1,0,1
-0.148,1897,1,1,0,1
-0.146,2089,1,1,0,1
-0.144,2455,1,1,0,1
-0.142,2787,1,1,0,1
-0.14,2948,1,1,0,1
-0.138,2780,1,1,0,1
-0.136,2355,1,1,0,1
-0.134,1988,1,1,0,1
-0.132,1834,1,1,0,1
-0.13,1929,1,1,0,1
-0.128,2267,1,1,0,1
-0.126,2643,1,1,0,1
-0.124,2906,1,1,0,1
-0.122,2889,1,1,0,1
-0.12,2547,1,1,0,1
-0.118,2150,1,1,0,1
-0.116,1935,1,1,0,1
-0.114,1947,1,1,0,1
-0.112,2218,1,1,0,1
-0.11,2594,1,1,0,1
-0.108,2889,1,1,0,1
-0.106,2959,1,1,0,1
-0.104,2691,1,1,0,1
-0.102,2253,1,1,0,1
-0.1,1954,1,1,0,1
-0.098,1870,1,1,0,1
-0.096,2038,1,1,0,1
-0.094,2383,1,1,0,1
-0.092,2691,1,1,0,1
-0.09,2830,1,1,0,1
-0.08799999999999999,2647,1,1,0,1
-0.08599999999999999,2211,1,1,0,1
-0.08400000000000001,1835,1,1,0,1
-0.082,1674,1,1,0,1
-0.08,1756,1,1,0,1
-0.078,2077,1,1,0,1
-0.076,2426,1,1,0,1
-0.074,2661,1,1,0,1
-0.07199999999999999,2614,1,1,0,1
-0.07000000000000001,2245,1,1,0,1
-0.068,1821,1,1,0,1
-0.066,1580,1,1,0,1
-0.064,1562,1,1,0,1
-0.062,1803,1,1,0,1
-0.06,2153,1,1,0,1
-0.058,2429,1,1,0,1
-0.056,2482,1,1,0,1
-0.054,2198,1,1,0,1
-0.052,1752,1,1,0,1
-0.05,1450,1,1,0,1
-0.048,1364,1,1,0,1
-0.046,1530,1,1,0,1
-0.044,1876,1,1,0,1
-0.042,2191,1,1,0,1
-0.04,2335,1,1,0,1
-0.038,2155,1,1,0,1
-0.036,1718,1,1,0,1
-0.034,1347,1,1,0,1
-0.032,1188,1,1,0,1
-0.03,1271,1,1,0,1
-0.028,1596,1,1,0,1
-0.026,1953,1,1,0,1
-0.024,2197,1,1,0,1
-0.022,2164,1,1,0,1
-0.02,1815,1,1,0,1
-0.018,1417,1,1,0,1
-0.016,1202,1,1,0,1
-0.014,1214,1,1,0,1
-0.012,1489,1,1,0,1
-0.01,1867,1,1,0,1
-0.008,2162,1,1,0,1
-0.006,2223,1,1,0,1
-0.004,1944,1,1,0,1
-0.002,1502,1,1,0,1
0,1203,1,1,0,1
0.002,1127,1,1,0,1
0.004,1317,1,1,0,1
0.006,1697,1,1,0,1
0.008,2045,1,1,0,1
0.01,2233,1,1,0,1
0.012,2098,1,1,0,1
0.014,1705,1,1,0,1
0.016,1373,1,1,0,1
0.018,1246,1,1,0,1
0.02,1359,1,1,0,1
0.022,1709,1,1,0,1
0.024,2084,1,1,0,1
0.026,2335,1,1,0,1
0.028,2301,1,1,0,1
0.03,1948,1,1,0,1
0.032,1545,1,1,0,1
0.034,1326,1,1,0,1
0.036,1330,1,1,0,1
0.038,1591,1,1,0,1
0.04,1958,1,1,0,1
0.042,2252,1,1,0,1
0.044,2325,1,1,0,1
0.046,2062,1,1,0,1
0.048,1637,1,1,0,1
0.05,1356,1,1,0,1
0.052,1289,1,1,0,1
0.054,1476,1,1,0,1
0.056,1845,1,1,0,1
0.058,2181,1,1,0,1
0.06,2346,1,1,0,1
0.062,2186,1,1,0,1
0.064,1771,1,1,0,1
0.066,1426,1,1,0,1
0.068,1293,1,1,0,1
0.07000000000000001,1407,1,1,0,1
0.07199999999999999,1759,1,1,0,1
0.074,2142,1,1,0,1
0.076,2402,1,1,0,1
0.078,2371,1,1,0,1
0.08,2017,1,1,0,1
0.082,1614,1,1,0,1
0.08400000000000001,1397,1,1,0,1
0.08599999999999999,1405,1,1,0,1
0.08799999999999999,1675,1,1,0,1
0.09,2047,1,1,0,1
0.092,2342,1,1,0,1
0.094,2406,1,1,0,1
0.096,2130,1,1,0,1
0.098,1691,1,1,0,1
0.1,1397,1,1,0,1
0.102,1324,1,1,0,1
0.104,1510,1,1,0,1
0.106,1879,1,1,0,1
0.108,2219,1,1,0,1
0.11,2389,1,1,0,1
0.112,2237,1,1,0,1
0.114,1833,1,1,0,1
0.116,1492,1,1,0,1
0.118,1361,1,1,0,1
0.12,1470,1,1,0,1
0.122,1817,1,1,0,1
0.124,2190,1,1,0,1
0.126,2442,1,1,0,1
0.128,2405,1,1,0,1
0.13,2045,1,1,0,1
0.132,1643,1,1,0,1
0.134,1428,1,1,0,1
0.136,1437,1,1,0,1
0.138,1702,1,1,0,1
0.14,2073,1,1,0,1
0.142,2365,1,1,0,1
0.144,2437,1,1,0,1
0.146,2173,1,1,0,1
0.148,1753,1,1,0,1
0.15,1475,1,1,0,1
0.152,1410,1,1,0,1
0.154,1597,1,1,0,1
0.156,1961,1,1,0,1
0.158,2290,1,1,0,1
0.16,2451,1,1,0,1
0.162,2291,1,1,0,1
0.164,1879,1,1,0,1
0.166,1533,1,1,0,1
0.168,1396,1,1,0,1
0.17,1498,1,1,0,1
0.172,1833,1,1,0,1
0.174,2193,1,1,0,1
0.176,2430,1,1,0,1
0.178,2391,1,1,0,1
0.18,2041,1,1,0,1
0.182,1650,1,1,0,1
0.184,1444,1,1,0,1
0.186,1463,1,1,0,1
0.188,1739,1,1,0,1
0.19,2111,1,1,0,1
0.192,2403,1,1,0,1
0.194,2465,1,1,0,1
0.196,2189,1,1,0,1
0.198,1754,1,1,0,1
0.2,1466,1,1,0,1
0.202,1399,1,1,0,1
0.204,1592,1,1,0,1
0.206,1962,1,1,0,1
0.208,2293,1,1,0,1
0.21,2450,1,1,0,1
0.212,2275,1,1,0,1
0.214,1848,1,1,0,1
0.216,1491,1,1,0,1
0.218,1353,1,1,0,1
0.22,1461,1,1,0,1
0.222,1809,1,1,0,1
0.224,2185,1,1,0,1
0.226,2439,1,1,0,1
0.228,2409,1,1,0,1
0.23,2063,1,1,0,1
0.232,1671,1,1,0,1
0.234,1465,1,1,0,1
0.236,1483,1,1,0,1
0.238,1757,1,1,0,1
0.24,2129,1,1,0,1
0.242,2421,1,1,0,1
0.244,2483,1,1,0,1
0.246,2210,1,1,0,1
0.248,1782,1,1,0,1
0.25,1505,1,1,0,1
0.252,1449,1,1,0,1
0.254,1649,1,1,0,1
0.256,2027,1,1,0,1
0.258,2371,1,1,0,1
0.26,2538,1,1,0,1
0.262,2380,1,1,0,1
0.264,1963,1,1,0,1
0.266,1607,1,1,0,1
0.268,1454,1,1,0,1
0.27,1543,1,1,0,1
0.272,1869,1,1,0,1
0.274,2229,1,1,0,1
0.276,2475,1,1,0,1
0.278,2442,1,1,0,1
0.28,2098,1,1,0,1
0.282,1711,1,1,0,1
0.284,1516,1,1,0,1
0.286,1546,1,1,0,1
0.288,1829,1,1,0,1
0.29,2206,1,1,0,1
0.292,2499,1,1,0,1
0.294,2563,1,1,0,1
0.296,2289,1,1,0,1
0.298,1859,1,1,0,1
0.3,1575,1,1,0,1
0.302,1509,1,1,0,1
0.304,1698,1,1,0,1
0.306,2058,1,1,0,1
0.308,2379,1,1,0,1
0.31,2531,1,1,0,1
0.312,2362,1,1,0,1
0.314,1945,1,1,0,1
0.316,1593,1,1,0,1
0.318,1452,1,1,0,1
0.32,1554,1,1,0,1
0.322,1892,1,1,0,1
0.324,2254,1,1,0,1
0.326,2493,1,1,0,1
0.328,2455,1,1,0,1
0.33,2107,1,1,0,1
0.332,1719,1,1,0,1
0.334,1519,1,1,0,1
0.336,1547,1,1,0,1
0.338,1828,1,1,0,1
0.34,2205,1,1,0,1
0.342,2495,1,1,0,1
0.344,2557,1,1,0,1
0.346,2279,1,1,0,1
0.348,1845,1,1,0,1
0.35,1561,1,1,0,1
0.352,1497,1,1,0,1
0.354,1693,1,1,0,1
0.356,2068,1,1,0,1
0.358,2403,1,1,0,1
0.36,2569,1,1,0,1
0.362,2402,1,1,0,1
0.364,1983,1,1,0,1
0.366,1638,1,1,0,1
0.368,1501,1,1,0,1
0.37,1604,1,1,0,1
0.372,1938,1,1,0,1
0.374,2294,1,1,0,1
0.376,2527,1,1,0,1
0.378,2475,1,1,0,1
0.38,2111,1,1,0,1
0.382,1709,1,1,0,1
0.384,1503,1,1,0,1
0.386,1528,1,1,0,1
0.388,1817,1,1,0,1
0.39,2205,1,1,0,1
0.392,2509,1,1,0,1
0.394,2581,1,1,0,1
0.396,2309,1,1,0,1
0.398,1879,1,1,0,1
0.4,1595,1,1,0,1
0.402,1532,1,1,0,1
0.404,1730,1,1,0,1
0.406,2101,1,1,0,1
0.408,2429,1,1,0,1
0.41,2582,1,1,0,1
0.412,2403,1,1,0,1
0.414,1973,1,1,0,1
0.416,1619,1,1,0,1
0.418,1482,1,1,0,1
0.42,1596,1,1,0,1
0.422,1950,1,1,0,1
0.424,2331,1,1,0,1
0.426,2590,1,1,0,1
0.428,2559,1,1,0,1
0.43,2214,1,1,0,1
0.432,1823,1,1,0,1
0.434,1626,1,1,0,1
0.436,1653,1,1,0,1
0.438,1935,1,1,0,1
0.44,2308,1,1,0,1
0.442,2590,1,1,0,1
0.444,2639,1,1,0,1
0.446,2347,1,1,0,1
0.448,1901,1,1,0,1
0.45,1609,1,1,0,1
0.452,1540,1,1,0,1
0.454,1732,1,1,0,1
0.456,2103,1,1,0,1
0.458,2443,1,1,0,1
0.46,2614,1,1,0,1
0.462,2466,1,1,0,1
0.464,2071,1,1,0,1
0.466,1741,1,1,0,1
0.468,1623,1,1,0,1
0.47,1747,1,1,0,1
0.472,2102,1,1,0,1
0.474,2474,1,1,0,1
0.476,2715,1,1,0,1
0.478,2665,1,1,0,1
0.48,2298,1,1,0,1
0.482,1890,1,1,0,1
0.484,1674,1,1,0,1
0.486,1682,1,1,0,1
0.488,1945,1,1,0,1
0.49,2310,1,1,0,1
0.492,2590,1,1,0,1
0.494,2643,1,1,0,1
0.496,2354,1,1,0,1
0.498,1914,1,1,0,1
0.5,1628,1,1,0,1
0.502,1561,1,1,0,1
0.504,1753,1,1,0,1
0.506,2121,1,1,0,1
0.508,2449,1,1,0,1
0.51,2601,1,1,0,1
0.512,2418,1,1,0,1
0.514,1977,1,1,0,1
0.516,1605,1,1,0,1
0.518,1445,1,1,0,1
0.52,1533,1,1,0,1
0.522,1862,1,1,0,1
0.524,2221,1,1,0,1
0.526,2459,1,1,0,1
0.528,2410,1,1,0,1
0.53,2046,1,1,0,1
0.532,1651,1,1,0,1
0.534,1447,1,1,0,1
0.536,1470,1,1,0,1
0.538,1749,1,1,0,1
0.54,2121,1,1,0,1
0.542,2404,1,1,0,1
0.544,2458,1,1,0,1
0.546,2181,1,1,0,1
0.548,1758,1,1,0,1
0.55,1492,1,1,0,1
0.552,1447,1,1,0,1
0.554,1657,1,1,0,1
0.556,2033,1,1,0,1
0.5580000000000001,2361,1,1,0,1
0.5600000000000001,2510,1,1,0,1
0.5620000000000001,2330,1,1,0,1
0.5639999999999999,1902,1,1,0,1
0.5659999999999999,1555,1,1,0,1
0.5679999999999999,1430,1,1,0,1
0.57,1557,1,1,0,1
0.572,1913,1,1,0,1
0.574,2287,1,1,0,1
0.576,2535,1,1,0,1
0.578,2490,1,1,0,1
0.58,2134,1,1,0,1
0.582,1746,1,1,0,1
0.584,1557,1,1,0,1
0.586,1602,1,1,0,1
0.588,1917,1,1,0,1
0.59,2351,1,1,0,1
0.592,2732,1,1,0,1
0.594,2917,1,1,0,1
0.596,2804,1,1,0,1
0.598,2578,1,1,0,1
0.6,2537,1,1,0,1
0.602,2741,1,1,0,1
0.604,3205,1,1,0,1
0.606,3823,1,1,0,1
0.608,4050,1,1,0,1
0.61,4061,1,1,0,1
0.612,4051,1,1,0,1
0.614,3718,1,1,0,1
0.616,3257,1,1,0,1
0.618,2854,1,1,0,1
0.62,2588,1,1,0,1
0.622,2483,1,1,0,1
0.624,2359,1,1,0,1
0.626,2083,1,1,0,1
0.628,1497,1,1,0,1
0.63,622,1,1,0,1
0.632,45,1,1,0,1
0.634,2,1,1,0,1
0.636,0,1,1,0,1
0.638,0,1,1,0,1
0.64,12,1,1,0,1
0.642,103,1,1,0,1
0.644,117,1,1,0,1
0.646,10,1,1,0,1
0.648,0,1,1,0,1
0.65,0,1,1,0,1
0.652,47,1,1,0,1
0.654,378,1,1,0,1
0.656,908,1,1,0,1
0.658,1420,1,1,0,1
0.66,1771,1,1,0,1
0.662,1795,1,1,0,1
0.664,1558,1,1,0,1
0.666,1379,1,1,0,1
0.668,1395,1,1,0,1
0.67,1641,1,1,0,1
0.672,2099,1,1,0,1
0.674,2547,1,1,0,1
0.676,2849,1,1,0,1
0.678,2841,1,1,0,1
0.68,2499,1,1,0,1
0.6820000000000001,2106,1,1,0,1
0.6840000000000001,1899,1,1,0,1
0.6860000000000001,1917,1,1,0,1
0.6879999999999999,2190,1,1,0,1
0.6899999999999999,2550,1,1,0,1
0.6919999999999999,2829,1,1,0,1
0.694,2871,1,1,0,1
0.696,2579,1,1,0,1
0.698,2135,1,1,0,1
0.7,1844,1,1,0,1
0.702,1774,1,1,0,1
0.704,1967,1,1,0,1
0.706,2338,1,1,0,1
0.708,2667,1,1,0,1
0.71,2821,1,1,0,1
0.712,2643,1,1,0,1
0.714,2216,1,1,0,1
0.716,1860,1,1,0,1
0.718,1717,1,1,0,1
0.72,1821,1,1,0,1
0.722,2161,1,1,0,1
0.724,2523,1,1,0,1
0.726,2767,1,1,0,1
0.728,2725,1,1,0,1
0.73,2370,1,1,0,1
0.732,1973,1,1,0,1
0.734,1767,1,1,0,1
0.736,1786,1,1,0,1
0.738,2063,1,1,0,1
0.74,2430,1,1,0,1
0.742,2715,1,1,0,1
0.744,2771,1,1,0,1
0.746,2491,1,1,0,1
0.748,2060,1,1,0,1
0.75,1777,1,1,0,1
0.752,1717,1,1,0,1
0.754,1915,1,1,0,1
0.756,2290,1,1,0,1
0.758,2629,1,1,0,1
0.76,2791,1,1,0,1
0.762,2621,1,1,0,1
0.764,2202,1,1,0,1
0.766,1851,1,1,0,1
0.768,1715,1,1,0,1
0.77,1828,1,1,0,1
0.772,2178,1,1,0,1
0.774,2547,1,1,0,1
0.776,2791,1,1,0,1
0.778,2745,1,1,0,1
0.78,2381,1,1,0,1
0.782,1983,1,1,0,1
0.784,1783,1,1,0,1
0.786,1819,1,1,0,1
0.788,2114,1,1,0,1
0.79,2493,1,1,0,1
0.792,2783,1,1,0,1
0.794,2835,1,1,0,1
0.796,2539,1,1,0,1
0.798,2093,1,1,0,1
0.8,1801,1,1,0,1
0.802,1737,1,1,0,1
0.804,1942,1,1,0,1
0.806,2326,1,1,0,1
0.8080000000000001,2671,1,1,0,1
0.8100000000000001,2842,1,1,0,1
0.8120000000000001,2677,1,1,0,1
0.8139999999999999,2263,1,1,0,1
0.8159999999999999,1917,1,1,0,1
0.8179999999999999,1786,1,1,0,1
0.82,1901,1,1,0,1
0.822,2251,1,1,0,1
0.824,2621,1,1,0,1
0.826,2867,1,1,0,1
0.828,2827,1,1,0,1
0.83,2473,1,1,0,1
0.832,2085,1,1,0,1
0.834,1885,1,1,0,1
0.836,1917,1,1,0,1
0.838,2209,1,1,0,1
0.84,2591,1,1,0,1
0.842,2890,1,1,0,1
0.844,2956,1,1,0,1
0.846,2683,1,1,0,1
0.848,2255,1,1,0,1
0.85,1964,1,1,0,1
0.852,1886,1,1,0,1
0.854,2066,1,1,0,1
0.856,2418,1,1,0,1
0.858,2742,1,1,0,1
0.86,2901,1,1,0,1
0.862,2741,1,1,0,1
0.864,2333,1,1,0,1
0.866,1995,1,1,0,1
0.868,1865,1,1,0,1
0.87,1974,1,1,0,1
0.872,2311,1,1,0,1
0.874,2662,1,1,0,1
0.876,2890,1,1,0,1
0.878,2827,1,1,0,1
0.88,2451,1,1,0,1
0.882,2037,1,1,0,1
0.884,1818,1,1,0,1
0.886,1830,1,1,0,1
0.888,2103,1,1,0,1
0.89,2470,1,1,0,1
0.892,2749,1,1,0,1
0.894,2790,1,1,0,1
0.896,2493,1,1,0,1
0.898,2047,1,1,0,1
0.9,1756,1,1,0,1
0.902,1685,1,1,0,1
0.904,1874,1,1,0,1
0.906,2234,1,1,0,1
0.908,2554,1,1,0,1
0.91,2695,1,1,0,1
0.912,2499,1,1,0,1
0.914,2059,1,1,0,1
0.916,1697,1,1,0,1
0.918,1550,1,1,0,1
0.92,1646,1,1,0,1
0.922,1973,1,1,0,1
0.924,2315,1,1,0,1
0.926,2527,1,1,0,1
0.928,2447,1,1,0,1
0.93,2057,1,1,0,1
0.9320000000000001,1635,1,1,0,1
0.9340000000000001,1411,1,1,0,1
0.9360000000000001,1417,1,1,0,1
0.9379999999999999,1684,1,1,0,1
0.9399999999999999,2043,1,1,0,1
0.9419999999999999,2317,1,1,0,1
0.944,2345,1,1,0,1
0.946,2031,1,1,0,1
0.948,1578,1,1,0,1
0.95,1278,1,1,0,1
0.952,1206,1,1,0,1
0.954,1398,1,1,0,1
0.956,1765,1,1,0,1
0.958,2094,1,1,0,1
0.96,2247,1,1,0,1
0.962,2071,1,1,0,1
0.964,1654,1,1,0,1
0.966,1318,1,1,0,1
0.968,1194,1,1,0,1
0.97,1313,1,1,0,1
0.972,1657,1,1,0,1
0.974,2015,1,1,0,1
0.976,2247,1,1,0,1
0.978,2186,1,1,0,1
0.98,1817,1,1,0,1
0.982,1424,1,1,0,1
0.984,1225,1,1,0,1
0.986,1251,1,1,0,1
0.988,1534,1,1,0,1
0.99,1910,1,1,0,1
0.992,2201,1,1,0,1
0.994,2253,1,1,0,1
0.996,1969,1,1,0,1
0.998,1547,1,1,0,1
1,1283,1,1,0,1
1.002,1240,1,1,0,1
1.004,1453,1,1,0,1
1.006,1829,1,1,0,1
1.008,2158,1,1,0,1
1.01,2307,1,1,0,1
1.012,2129,1,1,0,1
1.014,1711,1,1,0,1
1.016,1381,1,1,0,1
1.018,1266,1,1,0,1
1.02,1398,1,1,0,1
1.022,1757,1,1,0,1
1.024,2133,1,1,0,1
1.026,2377,1,1,0,1
1.028,2326,1,1,0,1
1.03,1961,1,1,0,1
1.032,1567,1,1,0,1
1.034,1364,1,1,0,1
1.036,1387,1,1,0,1
1.038,1668,1,1,0,1
1.04,2038,1,1,0,1
1.042,2324,1,1,0,1
1.044,2367,1,1,0,1
1.046,2073,1,1,0,1
1.048,1633,1,1,0,1
1.05,1348,1,1,0,1
1.052,1287,1,1,0,1
1.054,1492,1,1,0,1
1.056,1874,1,1,0,1
1.058,2221,1,1,0,1
1.06,2388,1,1,0,1
1.062,2223,1,1,0,1
1.064,1813,1,1,0,1
1.066,1481,1,1,0,1
1.068,1357,1,1,0,1
1.07,1476,1,1,0,1
1.072,1817,1,1,0,1
1.074,2166,1,1,0,1
1.076,2389,1,1,0,1
1.078,2325,1,1,0,1
1.08,1958,1,1,0,1
1.082,1573,1,1,0,1
1.084,1389,1,1,0,1
1.086,1435,1,1,0,1
1.088,1734,1,1,0,1
1.09,2114,1,1,0,1
1.092,2395,1,1,0,1
1.094,2435,1,1,0,1
1.096,2138,1,1,0,1
1.098,1701,1,1,0,1
1.1,1418,1,1,0,1
1.102,1359,1,1,0,1
1.104,1562,1,1,0,1
1.106,1933,1,1,0,1
1.108,2263,1,1,0,1
1.11,2415,1,1,0,1
1.112,2238,1,1,0,1
1.114,1822,1,1,0,1
1.116,1491,1,1,0,1
1.118,1371,1,1,0,1
1.12,1492,1,1,0,1
1.122,1839,1,1,0,1
1.124,2203,1,1,0,1
1.126,2442,1,1,0,1
1.128,2390,1,1,0,1
1.13,2026,1,1,0,1
1.132,1636,1,1,0,1
1.134,1436,1,1,0,1
1.136,1463,1,1,0,1
1.138,1746,1,1,0,1
1.14,2116,1,1,0,1
1.142,2396,1,1,0,1
1.144,2437,1,1,0,1
1.146,2137,1,1,0,1
1.148,1694,1,1,0,1
1.15,1412,1,1,0,1
1.152,1354,1,1,0,1
1.154,1562,1,1,0,1
1.156,1942,1,1,0,1
1.158,2284,1,1,0,1
1.16,2449,1,1,0,1
1.162,2279,1,1,0,1
1.164,1868,1,1,0,1
1.166,1534,1,1,0,1
1.168,1407,1,1,0,1
1.17,1519,1,1,0,1
1.172,1859,1,1,0,1
1.174,2213,1,1,0,1
1.176,2443,1,1,0,1
1.178,2387,1,1,0,1
1.18,2025,1,1,0,1
1.182,1641,1,1,0,1
1.184,1453,1,1,0,1
1.186,1492,1,1,0,1
1.188,1781,1,1,0,1
1.19,2153,1,1,0,1
1.192,2431,1,1,0,1
1.194,2473,1,1,0,1
1.196,2170,1,1,0,1
1.198,1727,1,1,0,1
1.2,1442,1,1,0,1
1.202,1379,1,1,0,1
1.204,1586,1,1,0,1
1.206,1973,1,1,0,1
1.208,2326,1,1,0,1
1.21,2499,1,1,0,1
1.212,2339,1,1,0,1
1.214,1931,1,1,0,1
1.216,1605,1,1,0,1
1.218,1487,1,1,0,1
1.22,1610,1,1,0,1
1.222,1957,1,1,0,1
1.224,2316,1,1,0,1
1.226,2541,1,1,0,1
1.228,2469,1,1,0,1
1.23,2081,1,1,0,1
1.232,1663,1,1,0,1
1.234,1446,1,1,0,1
1.236,1466,1,1,0,1
1.238,1752,1,1,0,1
1.24,2134,1,1,0,1
1.242,2430,1,1,0,1
1.244,2489,1,1,0,1
1.246,2206,1,1,0,1
1.248,1782,1,1,0,1
1.25,1515,1,1,0,1
1.252,1471,1,1,0,1
1.254,1690,1,1,0,1
1.256,2071,1,1,0,1
1.258,2403,1,1,0,1
1.26,2549,1,1,0,1
1.262,2363,1,1,0,1
1.264,1937,1,1,0,1
1.266,1595,1,1,0,1
1.268,1469,1,1,0,1
1.27,1589,1,1,0,1
1.272,1937,1,1,0,1
1.274,2293,1,1,0,1
1.276,2517,1,1,0,1
1.278,2441,1,1,0,1
1.28,2053,1,1,0,1
1.282,1643,1,1,0,1
1.284,1439,1,1,0,1
1.286,1476,1,1,0,1
1.288,1778,1,1,0,1
1.29,2171,1,1,0,1
1.292,2474,1,1,0,1
1.294,2532,1,1,0,1
1.296,2248,1,1,0,1
1.298,1818,1,1,0,1
1.3,1542,1,1,0,1
1.302,1487,1,1,0,1
1.304,1691,1,1,0,1
1.306,2061,1,1,0,1
1.308,2388,1,1,0,1
1.31,2537,1,1,0,1
1.312,2359,1,1,0,1
1.314,1941,1,1,0,1
1.316,1609,1,1,0,1
1.318,1491,1,1,0,1
1.32,1621,1,1,0,1
1.322,1975,1,1,0,1
1.324,2342,1,1,0,1
1.326,2573,1,1,0,1
1.328,2503,1,1,0,1
1.33,2121,1,1,0,1
1.332,1715,1,1,0,1
1.334,1506,1,1,0,1
1.336,1530,1,1,0,1
1.338,1817,1,1,0,1
1.34,2197,1,1,0,1
1.342,2487,1,1,0,1
1.344,2540,1,1,0,1
1.346,2254,1,1,0,1
1.348,1829,1,1,0,1
1.35,1563,1,1,0,1
1.352,1521,1,1,0,1
1.354,1741,1,1,0,1
1.356,2122,1,1,0,1
1.358,2453,1,1,0,1
1.36,2599,1,1,0,1
1.362,2412,1,1,0,1
1.364,1983,1,1,0,1
1.366,1641,1,1,0,1
1.368,1513,1,1,0,1
1.37,1630,1,1,0,1
1.372,1971,1,1,0,1
1.374,2326,1,1,0,1
1.376,2547,1,1,0,1
1.378,2475,1,1,0,1
1.38,2098,1,1,0,1
1.382,1700,1,1,0,1
1.384,1500,1,1,0,1
1.386,1535,1,1,0,1
1.388,1830,1,1,0,1
1.39,2214,1,1,0,1
1.392,2510,1,1,0,1
1.394,2565,1,1,0,1
1.396,2274,1,1,0,1
1.398,1846,1,1,0,1
1.4,1577,1,1,0,1
1.402,1530,1,1,0,1
1.404,1750,1,1,0,1
1.406,2138,1,1,0,1
1.408,2482,1,1,0,1
1.41,2644,1,1,0,1
1.412,2474,1,1,0,1
1.414,2063,1,1,0,1
1.416,1730,1,1,0,1
1.418,1606,1,1,0,1
1.42,1722,1,1,0,1
1.422,2058,1,1,0,1
1.424,2397,1,1,0,1
1.426,2601,1,1,0,1
1.428,2503,1,1,0,1
1.43,2107,1,1,0,1
1.432,1700,1,1,0,1
1.434,1501,1,1,0,1
1.436,1548,1,1,0,1
1.438,1860,1,1,0,1
1.44,2260,1,1,0,1
1.442,2571,1,1,0,1
1.444,2633,1,1,0,1
1.446,2348,1,1,0,1
1.448,1917,1,1,0,1
1.45,1644,1,1,0,1
1.452,1597,1,1,0,1
1.454,1819,1,1,0,1
1.456,2213,1,1,0,1
1.458,2567,1,1,0,1
1.46,2735,1,1,0,1
1.462,2565,1,1,0,1
1.464,2143,1,1,0,1
1.466,1797,1,1,0,1
1.468,1658,1,1,0,1
1.47,1766,1,1,0,1
1.472,2095,1,1,0,1
1.474,2431,1,1,0,1
1.476,2635,1,1,0,1
1.478,2543,1,1,0,1
1.48,2153,1,1,0,1
1.482,1746,1,1,0,1
1.484,1540,1,1,0,1
1.486,1564,1,1,0,1
1.488,1838,1,1,0,1
1.49,2197,1,1,0,1
1.492,2463,1,1,0,1
1.494,2484,1,1,0,1
1.496,2169,1,1,0,1
1.498,1729,1,1,0,1
1.5,1452,1,1,0,1
1.502,1401,1,1,0,1
1.504,1613,1,1,0,1
1.506,1991,1,1,0,1
1.508,2322,1,1,0,1
1.51,2467,1,1,0,1
1.512,2283,1,1,0,1
1.514,1867,1,1,0,1
1.516,1535,1,1,0,1
1.518,1422,1,1,0,1
1.52,1557,1,1,0,1
1.522,1915,1,1,0,1
1.524,2275,1,1,0,1
1.526,2498,1,1,0,1
1.528,2421,1,1,0,1
1.53,2035,1,1,0,1
1.532,1634,1,1,0,1
1.534,1430,1,1,0,1
1.536,1462,1,1,0,1
1.538,1755,1,1,0,1
1.54,2135,1,1,0,1
1.542,2427,1,1,0,1
1.544,2483,1,1,0,1
1.546,2203,1,1,0,1
1.548,1785,1,1,0,1
1.55,1526,1,1,0,1
1.552,1487,1,1,0,1
1.554,1711,1,1,0,1
1.556,2100,1,1,0,1
1.558,2442,1,1,0,1
1.56,2597,1,1,0,1
1.562,2413,1,1,0,1
1.564,1989,1,1,0,1
1.566,1654,1,1,0,1
1.568,1549,1,1,0,1
1.57,1711,1,1,0,1
1.572,2135,1,1,0,1
1.574,2605,1,1,0,1
1.576,2973,1,1,0,1
1.578,3081,1,1,0,1
1.58,2907,1,1,0,1
1.582,2743,1,1,0,1
1.584,2791,1,1,0,1
1.586,3065,1,1,0,1
1.588,3575,1,1,0,1
1.59,4015,1,1,0,1
1.592,4059,1,1,0,1
1.594,4061,1,1,0,1
1.596,3791,1,1,0,1
1.598,3230,1,1,0,1
1.6,2697,1,1,0,1
1.602,2287,1,1,0,1
1.604,2075,1,1,0,1
1.606,1981,1,1,0,1
1.608,1804,1,1,0,1
1.61,1429,1,1,0,1
1.612,758,1,1,0,1
1.614,81,1,1,0,1
1.616,4,1,1,0,1
1.618,0,1,1,0,1
1.62,0,1,1,0,1
1.622,35,1,1,0,1
1.624,221,1,1,0,1
1.626,421,1,1,0,1
1.628,438,1,1,0,1
1.63,223,1,1,0,1
1.632,35,1,1,0,1
1.634,61,1,1,0,1
1.636,326,1,1,0,1
1.638,839,1,1,0,1
1.64,1428,1,1,0,1
1.642,1914,1,1,0,1
1.644,2135,1,1,0,1
1.646,1990,1,1,0,1
1.648,1689,1,1,0,1
1.65,1525,1,1,0,1
1.652,1572,1,1,0,1
1.654,1866,1,1,0,1
1.656,2303,1,1,0,1
1.658,2677,1,1,0,1
1.66,2853,1,1,0,1
1.662,2681,1,1,0,1
1.664,2261,1,1,0,1
1.666,1910,1,1,0,1
1.668,1773,1,1,0,1
1.67,1881,1,1,0,1
1.672,2215,1,1,0,1
1.674,2558,1,1,0,1
1.676,2777,1,1,0,1
1.678,2705,1,1,0,1
1.68,2325,1,1,0,1
1.682,1925,1,1,0,1
1.684,1723,1,1,0,1
1.686,1758,1,1,0,1
1.688,2056,1,1,0,1
1.69,2441,1,1,0,1
1.692,2740,1,1,0,1
1.694,2796,1,1,0,1
1.696,2511,1,1,0,1
1.698,2090,1,1,0,1
1.7,1822,1,1,0,1
1.702,1779,1,1,0,1
1.704,1995,1,1,0,1
1.706,2370,1,1,0,1
1.708,2692,1,1,0,1
1.71,2828,1,1,0,1
1.712,2631,1,1,0,1
1.714,2195,1,1,0,1
1.716,1841,1,1,0,1
1.718,1705,1,1,0,1
1.72,1821,1,1,0,1
1.722,2171,1,1,0,1
1.724,2534,1,1,0,1
1.726,2771,1,1,0,1
1.728,2711,1,1,0,1
1.73,2350,1,1,0,1
1.732,1970,1,1,0,1
1.734,1786,1,1,0,1
1.736,1835,1,1,0,1
1.738,2135,1,1,0,1
1.74,2509,1,1,0,1
1.742,2789,1,1,0,1
1.744,2821,1,1,0,1
1.746,2511,1,1,0,1
1.748,2068,1,1,0,1
1.75,1785,1,1,0,1
1.752,1732,1,1,0,1
1.754,1947,1,1,0,1
1.756,2330,1,1,0,1
1.758,2666,1,1,0,1
1.76,2815,1,1,0,1
1.762,2635,1,1,0,1
1.764,2214,1,1,0,1
1.766,1875,1,1,0,1
1.768,1751,1,1,0,1
1.77,1876,1,1,0,1
1.772,2230,1,1,0,1
1.774,2587,1,1,0,1
1.776,2803,1,1,0,1
1.778,2715,1,1,0,1
1.78,2321,1,1,0,1
1.782,1913,1,1,0,1
1.784,1717,1,1,0,1
1.786,1767,1,1,0,1
1.788,2085,1,1,0,1
1.79,2486,1,1,0,1
1.792,2795,1,1,0,1
1.794,2859,1,1,0,1
1.796,2582,1,1,0,1
1.798,2165,1,1,0,1
1.8,1903,1,1,0,1
1.802,1861,1,1,0,1
1.804,2078,1,1,0,1
1.806,2455,1,1,0,1
1.808,2779,1,1,0,1
1.81,2915,1,1,0,1
1.812,2714,1,1,0,1
1.814,2277,1,1,0,1
1.816,1927,1,1,0,1
1.818,1803,1,1,0,1
1.82,1941,1,1,0,1
1.822,2314,1,1,0,1
1.824,2697,1,1,0,1
1.826,2939,1,1,0,1
1.828,2879,1,1,0,1
1.83,2507,1,1,0,1
1.832,2109,1,1,0,1
1.834,1901,1,1,0,1
1.836,1930,1,1,0,1
1.838,2223,1,1,0,1
1.84,2601,1,1,0,1
1.842,2890,1,1,0,1
1.844,2934,1,1,0,1
1.846,2641,1,1,0,1
1.848,2212,1,1,0,1
1.85,1941,1,1,0,1
1.852,1895,1,1,0,1
1.854,2109,1,1,0,1
1.856,2478,1,1,0,1
1.858,2795,1,1,0,1
1.86,2923,1,1,0,1
1.862,2715,1,1,0,1
1.864,2269,1,1,0,1
1.866,1909,1,1,0,1
1.868,1766,1,1,0,1
1.87,1871,1,1,0,1
1.872,2203,1,1,0,1
1.874,2546,1,1,0,1
1.876,2761,1,1,0,1
1.878,2681,1,1,0,1
1.88,2299,1,1,0,1
1.882,1901,1,1,0,1
1.884,1702,1,1,0,1
1.886,1736,1,1,0,1
1.888,2027,1,1,0,1
1.89,2397,1,1,0,1
1.892,2677,1,1,0,1
1.894,2707,1,1,0,1
1.896,2395,1,1,0,1
1.898,1946,1,1,0,1
1.9,1653,1,1,0,1
1.902,1582,1,1,0,1
1.904,1771,1,1,0,1
1.906,2118,1,1,0,1
1.908,2409,1,1,0,1
1.91,2513,1,1,0,1
1.912,2281,1,1,0,1
1.914,1817,1,1,0,1
1.916,1445,1,1,0,1
1.918,1294,1,1,0,1
1.92,1398,1,1,0,1
1.922,1737,1,1,0,1
1.924,2092,1,1,0,1
1.926,2314,1,1,0,1
1.928,2233,1,1,0,1
1.93,1844,1,1,0,1
1.932,1439,1,1,0,1
1.934,1231,1,1,0,1
1.936,1255,1,1,0,1
1.938,1538,1,1,0,1
1.94,1902,1,1,0,1
1.942,2175,1,1,0,1
1.944,2203,1,1,0,1
1.946,1893,1,1,0,1
1.948,1459,1,1,0,1
1.95,1192,1,1,0,1
1.952,1151,1,1,0,1
1.954,1377,1,1,0,1
1.956,1761,1,1,0,1
1.958,2097,1,1,0,1
1.96,2243,1,1,0,1
1.962,2053,1,1,0,1
1.964,1630,1,1,0,1
1.966,1299,1,1,0,1
1.968,1180,1,1,0,1
1.97,1307,1,1,0,1
1.972,1658,1,1,0,1
1.974,2015,1,1,0,1
1.976,2239,1,1,0,1
1.978,2155,1,1,0,1
1.98,1759,1,1,0,1
1.982,1354,1,1,0,1
1.984,1150,1,1,0,1
1.986,1186,1,1,0,1
1.988,1489,1,1,0,1
1.99,1889,1,1,0,1
1.992,2206,1,1,0,1
1.994,2279,1,1,0,1
1.996,2012,1,1,0,1
1.998,1610,1,1,0,1
2,1359,1,1,0,1
2.002,1322,1,1,0,1
2.004,1539,1,1,0,1
2.006,1911,1,1,0,1
2.008,2234,1,1,0,1
2.01,2370,1,1,0,1
2.012,2169,1,1,0,1
2.014,1733,1,1,0,1
2.016,1389,1,1,0,1
2.018,1265,1,1,0,1
2.02,1393,1,1,0,1
2.022,1748,1,1,0,1
2.024,2115,1,1,0,1
2.026,2343,1,1,0,1
2.028,2269,1,1,0,1
2.03,1889,1,1,0,1
2.032,1497,1,1,0,1
2.034,1309,1,1,0,1
2.036,1361,1,1,0,1
2.038,1673,1,1,0,1
2.04,2065,1,1,0,1
2.042,2361,1,1,0,1
2.044,2409,1,1,0,1
2.046,2115,1,1,0,1
2.048,1685,1,1,0,1
2.05,1416,1,1,0,1
2.052,1369,1,1,0,1
2.054,1585,1,1,0,1
2.056,1959,1,1,0,1
2.058,2285,1,1,0,1
2.06,2425,1,1,0,1
2.062,2228,1,1,0,1
2.064,1799,1,1,0,1
2.066,1460,1,1,0,1
2.068,1338,1,1,0,1
2.07,1466,1,1,0,1
2.072,1819,1,1,0,1
2.074,2181,1,1,0,1
2.076,2406,1,1,0,1
2.078,2331,1,1,0,1
2.08,1954,1,1,0,1
2.082,1564,1,1,0,1
2.084,1372,1,1,0,1
2.086,1411,1,1,0,1
2.088,1705,1,1,0,1
2.09,2081,1,1,0,1
2.092,2361,1,1,0,1
2.094,2396,1,1,0,1
2.096,2095,1,1,0,1
2.098,1666,1,1,0,1
2.1,1397,1,1,0,1
2.102,1352,1,1,0,1
2.104,1569,1,1,0,1
2.106,1943,1,1,0,1
2.108,2269,1,1,0,1
2.11,2406,1,1,0,1
2.112,2207,1,1,0,1
2.114,1780,1,1,0,1
2.116,1449,1,1,0,1
2.118,1335,1,1,0,1
2.12,1470,1,1,0,1
2.122,1830,1,1,0,1
2.124,2194,1,1,0,1
2.126,2415,1,1,0,1
2.128,2334,1,1,0,1
2.13,1949,1,1,0,1
2.132,1557,1,1,0,1
2.134,1364,1,1,0,1
2.136,1411,1,1,0,1
2.138,1717,1,1,0,1
2.14,2102,1,1,0,1
2.142,2393,1,1,0,1
2.144,2437,1,1,0,1
2.146,2142,1,1,0,1
2.148,1719,1,1,0,1
2.15,1458,1,1,0,1
2.152,1417,1,1,0,1
2.154,1636,1,1,0,1
2.156,2010,1,1,0,1
2.158,2337,1,1,0,1
2.16,2475,1,1,0,1
2.162,2281,1,1,0,1
2.164,1855,1,1,0,1
2.166,1523,1,1,0,1
2.168,1401,1,1,0,1
2.17,1527,1,1,0,1
2.172,1876,1,1,0,1
2.174,2230,1,1,0,1
2.176,2451,1,1,0,1
2.178,2373,1,1,0,1
2.18,1993,1,1,0,1
2.182,1602,1,1,0,1
2.184,1405,1,1,0,1
2.186,1445,1,1,0,1
2.188,1745,1,1,0,1
2.19,2131,1,1,0,1
2.192,2423,1,1,0,1
2.194,2469,1,1,0,1
2.196,2174,1,1,0,1
2.198,1753,1,1,0,1
2.2,1491,1,1,0,1
2.202,1455,1,1,0,1
2.204,1678,1,1,0,1
2.206,2055,1,1,0,1
2.208,2379,1,1,0,1
2.21,2514,1,1,0,1
2.212,2316,1,1,0,1
2.214,1889,1,1,0,1
2.216,1557,1,1,0,1
2.218,1439,1,1,0,1
2.22,1575,1,1,0,1
2.222,1931,1,1,0,1
2.224,2291,1,1,0,1
2.226,2518,1,1,0,1
2.228,2442,1,1,0,1
2.23,2057,1,1,0,1
2.232,1657,1,1,0,1
2.234,1459,1,1,0,1
2.236,1499,1,1,0,1
2.238,1802,1,1,0,1
2.24,2190,1,1,0,1
2.242,2487,1,1,0,1
2.244,2534,1,1,0,1
2.246,2238,1,1,0,1
2.248,1813,1,1,0,1
2.25,1546,1,1,0,1
2.252,1498,1,1,0,1
2.254,1709,1,1,0,1
2.256,2077,1,1,0,1
2.258,2397,1,1,0,1
2.26,2527,1,1,0,1
2.262,2325,1,1,0,1
2.264,1892,1,1,0,1
2.266,1554,1,1,0,1
2.268,1429,1,1,0,1
2.27,1549,1,1,0,1
2.272,1887,1,1,0,1
2.274,2236,1,1,0,1
2.276,2458,1,1,0,1
2.278,2386,1,1,0,1
2.28,2022,1,1,0,1
2.282,1655,1,1,0,1
2.284,1487,1,1,0,1
2.286,1547,1,1,0,1
2.288,1854,1,1,0,1
2.29,2234,1,1,0,1
2.292,2518,1,1,0,1
2.294,2553,1,1,0,1
2.296,2251,1,1,0,1
2.298,1823,1,1,0,1
2.3,1559,1,1,0,1
2.302,1517,1,1,0,1
2.304,1737,1,1,0,1
2.306,2111,1,1,0,1
2.308,2438,1,1,0,1
2.31,2573,1,1,0,1
2.312,2375,1,1,0,1
2.314,1946,1,1,0,1
2.316,1611,1,1,0,1
2.318,1491,1,1,0,1
2.32,1621,1,1,0,1
2.322,1975,1,1,0,1
2.324,2337,1,1,0,1
2.326,2559,1,1,0,1
2.328,2478,1,1,0,1
2.33,2093,1,1,0,1
2.332,1698,1,1,0,1
2.334,1505,1,1,0,1
2.336,1554,1,1,0,1
2.338,1861,1,1,0,1
2.34,2247,1,1,0,1
2.342,2537,1,1,0,1
2.344,2582,1,1,0,1
2.346,2286,1,1,0,1
2.348,1866,1,1,0,1
2.35,1607,1,1,0,1
2.352,1571,1,1,0,1
2.354,1797,1,1,0,1
2.356,2179,1,1,0,1
2.358,2503,1,1,0,1
2.36,2634,1,1,0,1
2.362,2431,1,1,0,1
2.364,2005,1,1,0,1
2.366,1674,1,1,0,1
2.368,1557,1,1,0,1
2.37,1688,1,1,0,1
2.372,2037,1,1,0,1
2.374,2391,1,1,0,1
2.376,2613,1,1,0,1
2.378,2534,1,1,0,1
2.38,2153,1,1,0,1
2.382,1761,1,1,0,1
2.384,1574,1,1,0,1
2.386,1622,1,1,0,1
2.388,1929,1,1,0,1
2.39,2317,1,1,0,1
2.392,2612,1,1,0,1
2.394,2661,1,1,0,1
2.396,2371,1,1,0,1
2.398,1950,1,1,0,1
2.4,1691,1,1,0,1
2.402,1647,1,1,0,1
2.404,1858,1,1,0,1
2.406,2215,1,1,0,1
2.408,2517,1,1,0,1
2.41,2630,1,1,0,1
2.412,2407,1,1,0,1
2.414,1961,1,1,0,1
2.416,1613,1,1,0,1
2.418,1484,1,1,0,1
2.42,1606,1,1,0,1
2.422,1947,1,1,0,1
2.424,2293,1,1,0,1
2.426,2505,1,1,0,1
2.428,2419,1,1,0,1
2.43,2031,1,1,0,1
2.432,1637,1,1,0,1
2.434,1441,1,1,0,1
2.436,1475,1,1,0,1
2.438,1765,1,1,0,1
2.44,2131,1,1,0,1
2.442,2406,1,1,0,1
2.444,2431,1,1,0,1
2.446,2125,1,1,0,1
2.448,1701,1,1,0,1
2.45,1443,1,1,0,1
2.452,1410,1,1,0,1
2.454,1635,1,1,0,1
2.456,2012,1,1,0,1
2.458,2341,1,1,0,1
2.46,2474,1,1,0,1
2.462,2268,1,1,0,1
2.464,1833,1,1,0,1
2.466,1491,1,1,0,1
2.468,1369,1,1,0,1
2.47,1497,1,1,0,1
2.472,1849,1,1,0,1
2.474,2205,1,1,0,1
2.476,2424,1,1,0,1
2.478,2345,1,1,0,1
2.48,1970,1,1,0,1
2.482,1601,1,1,0,1
2.484,1437,1,1,0,1
2.486,1509,1,1,0,1
2.488,1835,1,1,0,1
2.49,2234,1,1,0,1
2.492,2535,1,1,0,1
2.494,2589,1,1,0,1
2.496,2307,1,1,0,1
2.498,1895,1,1,0,1
2.5,1647,1,1,0,1
2.502,1628,1,1,0,1
2.504,1886,1,1,0,1
2.506,2323,1,1,0,1
2.508,2737,1,1,0,1
2.51,2999,1,1,0,1
2.512,2974,1,1,0,1
2.514,2767,1,1,0,1
2.516,2693,1,1,0,1
2.518,2851,1,1,0,1
2.52,3251,1,1,0,1
2.522,3839,1,1,0,1
2.524,4051,1,1,0,1
2.526,4061,1,1,0,1
2.528,4039,1,1,0,1
2.53,3646,1,1,0,1
2.532,3090,1,1,0,1
2.534,2599,1,1,0,1
2.536,2249,1,1,0,1
2.538,2092,1,1,0,1
2.54,1972,1,1,0,1
2.542,1734,1,1,0,1
2.544,1255,1,1,0,1
2.546,497,1,1,0,1
2.548,31,1,1,0,1
2.55,1,1,1,0,1
2.552,0,1,1,0,1
2.554,0,1,1,0,1
2.556,55,1,1,0,1
2.558,232,1,1,0,1
2.56,372,1,1,0,1
2.562,293,1,1,0,1
2.564,63,1,1,0,1
2.566,3,1,1,0,1
2.568,106,1,1,0,1
2.57,463,1,1,0,1
2.572,1029,1,1,0,1
2.574,1582,1,1,0,1
2.576,1979,1,1,0,1
2.578,2053,1,1,0,1
2.58,1789,1,1,0,1
2.582,1499,1,1,0,1
2.584,1393,1,1,0,1
2.586,1517,1,1,0,1
2.588,1898,1,1,0,1
2.59,2355,1,1,0,1
2.592,2711,1,1,0,1
2.594,2807,1,1,0,1
2.596,2557,1,1,0,1
2.598,2169,1,1,0,1
2.6,1926,1,1,0,1
2.602,1895,1,1,0,1
2.604,2117,1,1,0,1
2.606,2481,1,1,0,1
2.608,2787,1,1,0,1
2.61,2893,1,1,0,1
2.612,2660,1,1,0,1
2.614,2198,1,1,0,1
2.616,1833,1,1,0,1
2.618,1695,1,1,0,1
2.62,1820,1,1,0,1
2.622,2174,1,1,0,1
2.624,2534,1,1,0,1
2.626,2757,1,1,0,1
2.628,2674,1,1,0,1
2.63,2293,1,1,0,1
2.632,1915,1,1,0,1
2.634,1745,1,1,0,1
2.636,1811,1,1,0,1
2.638,2131,1,1,0,1
2.64,2519,1,1,0,1
2.642,2810,1,1,0,1
2.644,2853,1,1,0,1
2.646,2550,1,1,0,1
2.648,2120,1,1,0,1
2.65,1841,1,1,0,1
2.652,1781,1,1,0,1
2.654,1982,1,1,0,1
2.656,2341,1,1,0,1
2.658,2650,1,1,0,1
2.66,2771,1,1,0,1
2.662,2565,1,1,0,1
2.664,2138,1,1,0,1
2.666,1809,1,1,0,1
2.668,1700,1,1,0,1
2.67,1844,1,1,0,1
2.672,2210,1,1,0,1
2.674,2577,1,1,0,1
2.676,2805,1,1,0,1
2.678,2733,1,1,0,1
2.68,2361,1,1,0,1
2.682,1978,1,1,0,1
2.684,1794,1,1,0,1
2.686,1837,1,1,0,1
2.688,2130,1,1,0,1
2.69,2490,1,1,0,1
2.692,2750,1,1,0,1
2.694,2761,1,1,0,1
2.696,2442,1,1,0,1
2.698,2003,1,1,0,1
2.7,1727,1,1,0,1
2.702,1681,1,1,0,1
2.704,1901,1,1,0,1
2.706,2283,1,1,0,1
2.708,2626,1,1,0,1
2.71,2786,1,1,0,1
2.712,2620,1,1,0,1
2.714,2230,1,1,0,1
2.716,1932,1,1,0,1
2.718,1839,1,1,0,1
2.72,1981,1,1,0,1
2.722,2326,1,1,0,1
2.724,2662,1,1,0,1
2.726,2861,1,1,0,1
2.728,2763,1,1,0,1
2.73,2370,1,1,0,1
2.732,1978,1,1,0,1
2.734,1797,1,1,0,1
2.736,1849,1,1,0,1
2.738,2158,1,1,0,1
2.74,2539,1,1,0,1
2.742,2829,1,1,0,1
2.744,2870,1,1,0,1
2.746,2579,1,1,0,1
2.748,2163,1,1,0,1
2.75,1902,1,1,0,1
2.752,1863,1,1,0,1
2.754,2085,1,1,0,1
2.756,2459,1,1,0,1
2.758,2787,1,1,0,1
2.76,2926,1,1,0,1
2.762,2739,1,1,0,1
2.764,2331,1,1,0,1
2.766,2018,1,1,0,1
2.768,1916,1,1,0,1
2.77,2060,1,1,0,1
2.772,2412,1,1,0,1
2.774,2761,1,1,0,1
2.776,2967,1,1,0,1
2.778,2869,1,1,0,1
2.78,2471,1,1,0,1
2.782,2062,1,1,0,1
2.784,1850,1,1,0,1
2.786,1875,1,1,0,1
2.788,2161,1,1,0,1
2.79,2522,1,1,0,1
2.792,2795,1,1,0,1
2.794,2826,1,1,0,1
2.796,2522,1,1,0,1
2.798,2098,1,1,0,1
2.8,1836,1,1,0,1
2.802,1803,1,1,0,1
2.804,2031,1,1,0,1
2.806,2411,1,1,0,1
2.808,2731,1,1,0,1
2.81,2855,1,1,0,1
2.812,2634,1,1,0,1
2.814,2183,1,1,0,1
2.816,1823,1,1,0,1
2.818,1681,1,1,0,1
2.82,1787,1,1,0,1
2.822,2118,1,1,0,1
2.824,2455,1,1,0,1
2.826,2661,1,1,0,1
2.828,2565,1,1,0,1
2.83,2169,1,1,0,1
2.832,1767,1,1,0,1
2.834,1561,1,1,0,1
2.836,1583,1,1,0,1
2.838,1857,1,1,0,1
2.84,2201,1,1,0,1
2.842,2451,1,1,0,1
2.844,2451,1,1,0,1
2.846,2118,1,1,0,1
2.848,1659,1,1,0,1
2.85,1358,1,1,0,1
2.852,1274,1,1,0,1
2.854,1454,1,1,0,1
2.856,1799,1,1,0,1
2.858,2111,1,1,0,1
2.86,2250,1,1,0,1
2.862,2062,1,1,0,1
2.864,1650,1,1,0,1
2.866,1331,1,1,0,1
2.868,1220,1,1,0,1
2.87,1351,1,1,0,1
2.872,1700,1,1,0,1
2.874,2055,1,1,0,1
2.876,2269,1,1,0,1
2.878,2179,1,1,0,1
2.88,1785,1,1,0,1
2.882,1380,1,1,0,1
2.884,1171,1,1,0,1
2.886,1195,1,1,0,1
2.888,1481,1,1,0,1
2.89,1851,1,1,0,1
2.892,2142,1,1,0,1
2.894,2187,1,1,0,1
2.896,1896,1,1,0,1
2.898,1487,1,1,0,1
2.9,1245,1,1,0,1
2.902,1223,1,1,0,1
2.904,1461,1,1,0,1
2.906,1850,1,1,0,1
2.908,2182,1,1,0,1
2.91,2315,1,1,0,1
2.912,2106,1,1,0,1
2.914,1667,1,1,0,1
2.916,1324,1,1,0,1
2.918,1197,1,1,0,1
2.92,1319,1,1,0,1
2.922,1661,1,1,0,1
2.924,2013,1,1,0,1
2.926,2237,1,1,0,1
2.928,2165,1,1,0,1
2.93,1801,1,1,0,1
2.932,1441,1,1,0,1
2.934,1281,1,1,0,1
2.936,1350,1,1,0,1
2.938,1667,1,1,0,1
2.94,2052,1,1,0,1
2.942,2334,1,1,0,1
2.944,2361,1,1,0,1
2.946,2047,1,1,0,1
2.948,1621,1,1,0,1
2.95,1354,1,1,0,1
2.952,1306,1,1,0,1
2.954,1515,1,1,0,1
2.956,1878,1,1,0,1
2.958,2195,1,1,0,1
2.96,2321,1,1,0,1
2.962,2115,1,1,0,1
2.964,1694,1,1,0,1
2.966,1377,1,1,0,1
2.968,1272,1,1,0,1
2.97,1421,1,1,0,1
2.972,1789,1,1,0,1
2.974,2157,1,1,0,1
2.976,2383,1,1,0,1
2.978,2302,1,1,0,1
2.98,1926,1,1,0,1
2.982,1544,1,1,0,1
2.984,1356,1,1,0,1
2.986,1405,1,1,0,1
2.988,1713,1,1,0,1
2.99,2095,1,1,0,1
2.992,2381,1,1,0,1
2.994,2410,1,1,0,1
2.996,2102,1,1,0,1
2.998,1676,1,1,0,1
3,1417,1,1,0,1
3.002,1379,1,1,0,1
3.004,1602,1,1,0,1
3.006,1977,1,1,0,1
3.008,2307,1,1,0,1
3.01,2447,1,1,0,1
3.012,2255,1,1,0,1
3.014,1841,1,1,0,1
3.016,1519,1,1,0,1
3.018,1405,1,1,0,1
3.02,1535,1,1,0,1
3.022,1883,1,1,0,1
3.024,2230,1,1,0,1
3.026,2438,1,1,0,1
3.028,2342,1,1,0,1
3.03,1951,1,1,0,1
3.032,1565,1,1,0,1
3.034,1378,1,1,0,1
3.036,1425,1,1,0,1
3.038,1725,1,1,0,1
3.04,2099,1,1,0,1
3.042,2378,1,1,0,1
3.044,2407,1,1,0,1
3.046,2105,1,1,0,1
3.048,1686,1,1,0,1
3.05,1425,1,1,0,1
3.052,1385,1,1,0,1
3.054,1609,1,1,0,1
3.056,1981,1,1,0,1
3.058,2302,1,1,0,1
3.06,2427,1,1,0,1
3.062,2219,1,1,0,1
3.064,1791,1,1,0,1
3.066,1470,1,1,0,1
3.068,1364,1,1,0,1
3.07,1511,1,1,0,1
3.072,1877,1,1,0,1
3.074,2236,1,1,0,1
3.076,2450,1,1,0,1
3.078,2358,1,1,0,1
3.08,1972,1,1,0,1
3.082,1590,1,1,0,1
3.084,1415,1,1,0,1
3.086,1480,1,1,0,1
3.088,1799,1,1,0,1
3.09,2185,1,1,0,1
3.092,2471,1,1,0,1
3.094,2501,1,1,0,1
3.096,2190,1,1,0,1
3.098,1758,1,1,0,1
3.1,1489,1,1,0,1
3.102,1443,1,1,0,1
3.104,1661,1,1,0,1
3.106,2031,1,1,0,1
3.108,2351,1,1,0,1
3.11,2474,1,1,0,1
3.112,2260,1,1,0,1
3.114,1825,1,1,0,1
3.116,1490,1,1,0,1
3.118,1377,1,1,0,1
3.12,1522,1,1,0,1
3.122,1895,1,1,0,1
3.124,2274,1,1,0,1
3.126,2513,1,1,0,1
3.128,2443,1,1,0,1
3.13,2073,1,1,0,1
3.132,1694,1,1,0,1
3.134,1509,1,1,0,1
3.136,1551,1,1,0,1
3.138,1843,1,1,0,1
3.14,2203,1,1,0,1
3.142,2465,1,1,0,1
3.144,2475,1,1,0,1
3.146,2161,1,1,0,1
3.148,1741,1,1,0,1
3.15,1490,1,1,0,1
3.152,1462,1,1,0,1
3.154,1695,1,1,0,1
3.156,2077,1,1,0,1
3.158,2404,1,1,0,1
3.16,2538,1,1,0,1
3.162,2338,1,1,0,1
3.164,1915,1,1,0,1
3.166,1591,1,1,0,1
3.168,1477,1,1,0,1
3.17,1609,1,1,0,1
3.172,1957,1,1,0,1
3.174,2303,1,1,0,1
3.176,2511,1,1,0,1
3.178,2419,1,1,0,1
3.18,2033,1,1,0,1
3.182,1650,1,1,0,1
3.184,1468,1,1,0,1
3.186,1521,1,1,0,1
3.188,1827,1,1,0,1
3.19,2202,1,1,0,1
3.192,2479,1,1,0,1
3.194,2506,1,1,0,1
3.196,2197,1,1,0,1
3.198,1777,1,1,0,1
3.2,1521,1,1,0,1
3.202,1485,1,1,0,1
3.204,1709,1,1,0,1
3.206,2084,1,1,0,1
3.208,2402,1,1,0,1
3.21,2522,1,1,0,1
3.212,2303,1,1,0,1
3.214,1870,1,1,0,1
3.216,1545,1,1,0,1
3.218,1442,1,1,0,1
3.22,1595,1,1,0,1
3.222,1962,1,1,0,1
3.224,2331,1,1,0,1
3.226,2557,1,1,0,1
3.228,2477,1,1,0,1
3.23,2093,1,1,0,1
3.232,1709,1,1,0,1
3.234,1525,1,1,0,1
3.236,1575,1,1,0,1
3.238,1877,1,1,0,1
3.24,2247,1,1,0,1
3.242,2517,1,1,0,1
3.244,2537,1,1,0,1
3.246,2223,1,1,0,1
3.248,1795,1,1,0,1
3.25,1529,1,1,0,1
3.252,1486,1,1,0,1
3.254,1703,1,1,0,1
3.256,2070,1,1,0,1
3.258,2389,1,1,0,1
3.26,2521,1,1,0,1
3.262,2325,1,1,0,1
3.264,1915,1,1,0,1
3.266,1609,1,1,0,1
3.268,1514,1,1,0,1
3.27,1663,1,1,0,1
3.272,2019,1,1,0,1
3.274,2367,1,1,0,1
3.276,2579,1,1,0,1
3.278,2489,1,1,0,1
3.28,2105,1,1,0,1
3.282,1723,1,1,0,1
3.284,1545,1,1,0,1
3.286,1603,1,1,0,1
3.288,1914,1,1,0,1
3.29,2294,1,1,0,1
3.292,2574,1,1,0,1
3.294,2595,1,1,0,1
3.296,2277,1,1,0,1
3.298,1844,1,1,0,1
3.3,1580,1,1,0,1
3.302,1543,1,1,0,1
3.304,1773,1,1,0,1
3.306,2154,1,1,0,1
3.308,2479,1,1,0,1
3.31,2610,1,1,0,1
3.312,2403,1,1,0,1
3.314,1977,1,1,0,1
3.316,1655,1,1,0,1
3.318,1553,1,1,0,1
3.32,1706,1,1,0,1
3.322,2077,1,1,0,1
3.324,2449,1,1,0,1
3.326,2679,1,1,0,1
3.328,2606,1,1,0,1
3.33,2234,1,1,0,1
3.332,1860,1,1,0,1
3.334,1677,1,1,0,1
3.336,1717,1,1,0,1
3.338,2002,1,1,0,1
3.34,2355,1,1,0,1
3.342,2610,1,1,0,1
3.344,2611,1,1,0,1
3.346,2283,1,1,0,1
3.348,1849,1,1,0,1
3.35,1586,1,1,0,1
3.352,1551,1,1,0,1
3.354,1778,1,1,0,1
3.356,2149,1,1,0,1
3.358,2458,1,1,0,1
3.36,2569,1,1,0,1
3.362,2338,1,1,0,1
3.364,1890,1,1,0,1
3.366,1551,1,1,0,1
3.368,1429,1,1,0,1
3.37,1561,1,1,0,1
3.372,1907,1,1,0,1
3.374,2255,1,1,0,1
3.376,2461,1,1,0,1
3.378,2362,1,1,0,1
3.38,1971,1,1,0,1
3.382,1583,1,1,0,1
3.384,1393,1,1,0,1
3.386,1434,1,1,0,1
3.388,1725,1,1,0,1
3.39,2090,1,1,0,1
3.392,2365,1,1,0,1
3.394,2395,1,1,0,1
3.396,2098,1,1,0,1
3.398,1690,1,1,0,1
3.4,1447,1,1,0,1
3.402,1423,1,1,0,1
3.404,1660,1,1,0,1
3.406,2043,1,1,0,1
3.408,2377,1,1,0,1
3.41,2513,1,1,0,1
3.412,2319,1,1,0,1
3.414,1906,1,1,0,1
3.416,1591,1,1,0,1
3.418,1487,1,1,0,1
3.42,1631,1,1,0,1
3.422,1987,1,1,0,1
3.424,2343,1,1,0,1
3.426,2557,1,1,0,1
3.428,2465,1,1,0,1
3.43,2069,1,1,0,1
3.432,1671,1,1,0,1
3.434,1473,1,1,0,1
3.436,1513,1,1,0,1
3.438,1822,1,1,0,1
3.44,2233,1,1,0,1
3.442,2583,1,1,0,1
3.444,2711,1,1,0,1
3.446,2539,1,1,0,1
3.448,2290,1,1,0,1
3.45,2237,1,1,0,1
3.452,2438,1,1,0,1
3.454,2918,1,1,0,1
3.456,3546,1,1,0,1
3.458,4011,1,1,0,1
3.46,4059,1,1,0,1
3.462,4059,1,1,0,1
3.464,3823,1,1,0,1
3.466,3491,1,1,0,1
3.468,3193,1,1,0,1
3.47,3013,1,1,0,1
3.472,2961,1,1,0,1
3.474,2855,1,1,0,1
3.476,2578,1,1,0,1
3.478,1974,1,1,0,1
3.48,1068,1,1,0,1
3.482,199,1,1,0,1
3.484,10,1,1,0,1
3.486,0,1,1,0,1
3.488,0,1,1,0,1
3.49,12,1,1,0,1
3.492,80,1,1,0,1
3.494,45,1,1,0,1
3.496,2,1,1,0,1
3.498,0,1,1,0,1
3.5,0,1,1,0,1
3.502,34,1,1,0,1
3.504,352,1,1,0,1
3.506,857,1,1,0,1
3.508,1335,1,1,0,1
3.51,1635,1,1,0,1
3.512,1603,1,1,0,1
3.514,1347,1,1,0,1
3.516,1181,1,1,0,1
3.518,1217,1,1,0,1
3.52,1493,1,1,0,1
3.522,1970,1,1,0,1
3.524,2434,1,1,0,1
3.526,2737,1,1,0,1
3.528,2715,1,1,0,1
3.53,2374,1,1,0,1
3.532,2010,1,1,0,1
3.534,1830,1,1,0,1
3.536,1874,1,1,0,1
3.538,2165,1,1,0,1
3.54,2523,1,1,0,1
3.542,2789,1,1,0,1
3.544,2803,1,1,0,1
3.546,2481,1,1,0,1
3.548,2043,1,1,0,1
3.55,1779,1,1,0,1
3.552,1741,1,1,0,1
3.554,1964,1,1,0,1
3.556,2335,1,1,0,1
3.558,2653,1,1,0,1
3.56,2777,1,1,0,1
3.562,2567,1,1,0,1
3.564,2139,1,1,0,1
3.566,1818,1,1,0,1
3.568,1717,1,1,0,1
3.57,1873,1,1,0,1
3.572,2243,1,1,0,1
3.574,2609,1,1,0,1
3.576,2834,1,1,0,1
3.578,2750,1,1,0,1
3.58,2375,1,1,0,1
3.582,1999,1,1,0,1
3.584,1819,1,1,0,1
3.586,1863,1,1,0,1
3.588,2155,1,1,0,1
3.59,2511,1,1,0,1
3.592,2771,1,1,0,1
3.594,2775,1,1,0,1
3.596,2452,1,1,0,1
3.598,2017,1,1,0,1
3.6,1750,1,1,0,1
3.602,1707,1,1,0,1
3.604,1927,1,1,0,1
3.606,2297,1,1,0,1
3.608,2621,1,1,0,1
3.61,2757,1,1,0,1
3.612,2564,1,1,0,1
3.614,2155,1,1,0,1
3.616,1849,1,1,0,1
3.618,1754,1,1,0,1
3.62,1902,1,1,0,1
3.622,2255,1,1,0,1
3.624,2598,1,1,0,1
3.626,2797,1,1,0,1
3.628,2695,1,1,0,1
3.63,2301,1,1,0,1
3.632,1919,1,1,0,1
3.634,1740,1,1,0,1
3.636,1796,1,1,0,1
3.638,2099,1,1,0,1
3.64,2463,1,1,0,1
3.642,2729,1,1,0,1
3.644,2740,1,1,0,1
3.646,2422,1,1,0,1
3.648,2002,1,1,0,1
3.65,1761,1,1,0,1
3.652,1747,1,1,0,1
3.654,1996,1,1,0,1
3.656,2389,1,1,0,1
3.658,2723,1,1,0,1
3.66,2863,1,1,0,1
3.662,2671,1,1,0,1
3.664,2262,1,1,0,1
3.666,1951,1,1,0,1
3.668,1854,1,1,0,1
3.67,2002,1,1,0,1
3.672,2357,1,1,0,1
3.674,2709,1,1,0,1
3.676,2922,1,1,0,1
3.678,2830,1,1,0,1
3.68,2449,1,1,0,1
3.682,2070,1,1,0,1
3.684,1885,1,1,0,1
3.686,1934,1,1,0,1
3.688,2233,1,1,0,1
3.69,2597,1,1,0,1
3.692,2863,1,1,0,1
3.694,2877,1,1,0,1
3.696,2557,1,1,0,1
3.698,2131,1,1,0,1
3.7,1873,1,1,0,1
3.702,1843,1,1,0,1
3.704,2076,1,1,0,1
3.706,2455,1,1,0,1
3.708,2780,1,1,0,1
3.71,2914,1,1,0,1
3.712,2715,1,1,0,1
3.714,2302,1,1,0,1
3.716,1993,1,1,0,1
3.718,1893,1,1,0,1
3.72,2037,1,1,0,1
3.722,2388,1,1,0,1
3.724,2729,1,1,0,1
3.726,2925,1,1,0,1
3.728,2819,1,1,0,1
3.73,2419,1,1,0,1
3.732,2026,1,1,0,1
3.734,1834,1,1,0,1
3.736,1874,1,1,0,1
3.738,2163,1,1,0,1
3.74,2518,1,1,0,1
3.742,2778,1,1,0,1
3.744,2782,1,1,0,1
3.746,2455,1,1,0,1
3.748,2022,1,1,0,1
3.75,1757,1,1,0,1
3.752,1714,1,1,0,1
3.754,1926,1,1,0,1
3.756,2275,1,1,0,1
3.758,2564,1,1,0,1
3.76,2655,1,1,0,1
3.762,2419,1,1,0,1
3.764,1979,1,1,0,1
3.766,1650,1,1,0,1
3.768,1541,1,1,0,1
3.77,1683,1,1,0,1
3.772,2029,1,1,0,1
3.774,2367,1,1,0,1
3.776,2558,1,1,0,1
3.778,2441,1,1,0,1
3.78,2023,1,1,0,1
3.782,1609,1,1,0,1
3.784,1387,1,1,0,1
3.786,1401,1,1,0,1
3.788,1672,1,1,0,1
3.79,2017,1,1,0,1
3.792,2275,1,1,0,1
3.794,2283,1,1,0,1
3.796,1963,1,1,0,1
3.798,1543,1,1,0,1
3.8,1292,1,1,0,1
3.802,1262,1,1,0,1
3.804,1492,1,1,0,1
3.806,1858,1,1,0,1
3.808,2163,1,1,0,1
3.81,2268,1,1,0,1
3.812,2037,1,1,0,1
3.814,1601,1,1,0,1
3.816,1275,1,1,0,1
3.818,1170,1,1,0,1
3.82,1318,1,1,0,1
3.822,1678,1,1,0,1
3.824,2035,1,1,0,1
3.826,2251,1,1,0,1
3.828,2155,1,1,0,1
3.83,1770,1,1,0,1
3.832,1395,1,1,0,1
3.834,1221,1,1,0,1
3.836,1282,1,1,0,1
3.838,1591,1,1,0,1
3.84,1963,1,1,0,1
3.842,2235,1,1,0,1
3.844,2250,1,1,0,1
3.846,1933,1,1,0,1
3.848,1511,1,1,0,1
3.85,1260,1,1,0,1
3.852,1229,1,1,0,1
3.854,1457,1,1,0,1
3.856,1826,1,1,0,1
3.858,2142,1,1,0,1
3.86,2266,1,1,0,1
3.862,2061,1,1,0,1
3.864,1653,1,1,0,1
3.866,1358,1,1,0,1
3.868,1271,1,1,0,1
3.87,1433,1,1,0,1
3.872,1799,1,1,0,1
3.874,2155,1,1,0,1
3.876,2365,1,1,0,1
3.878,2263,1,1,0,1
3.88,1870,1,1,0,1
3.882,1485,1,1,0,1
3.884,1299,1,1,0,1
3.886,1342,1,1,0,1
3.888,1639,1,1,0,1
3.89,2001,1,1,0,1
3.892,2265,1,1,0,1
3.894,2275,1,1,0,1
3.896,1965,1,1,0,1
3.898,1566,1,1,0,1
3.9,1348,1,1,0,1
3.902,1358,1,1,0,1
3.904,1629,1,1,0,1
3.906,2039,1,1,0,1
3.908,2385,1,1,0,1
3.91,2522,1,1,0,1
3.912,2317,1,1,0,1
3.914,1890,1,1,0,1
3.916,1562,1,1,0,1
3.918,1442,1,1,0,1
3.92,1571,1,1,0,1
3.922,1909,1,1,0,1
3.924,2248,1,1,0,1
3.926,2440,1,1,0,1
3.928,2323,1,1,0,1
3.93,1919,1,1,0,1
3.932,1533,1,1,0,1
3.934,1353,1,1,0,1
3.936,1406,1,1,0,1
3.938,1711,1,1,0,1
3.94,2082,1,1,0,1
3.942,2357,1,1,0,1
3.944,2379,1,1,0,1
3.946,2070,1,1,0,1
3.948,1657,1,1,0,1
3.95,1406,1,1,0,1
3.952,1370,1,1,0,1
3.954,1590,1,1,0,1
3.956,1951,1,1,0,1
3.958,2262,1,1,0,1
3.96,2385,1,1,0,1
3.962,2180,1,1,0,1
3.964,1769,1,1,0,1
3.966,1468,1,1,0,1
3.968,1382,1,1,0,1
3.97,1541,1,1,0,1
3.972,1905,1,1,0,1
3.974,2263,1,1,0,1
3.976,2476,1,1,0,1
3.978,2382,1,1,0,1
3.98,2001,1,1,0,1
3.982,1623,1,1,0,1
3.984,1439,1,1,0,1
3.986,1487,1,1,0,1
3.988,1782,1,1,0,1
3.99,2139,1,1,0,1
3.992,2394,1,1,0,1
3.994,2395,1,1,0,1
3.996,2069,1,1,0,1
3.998,1639,1,1,0,1
4,1382,1,1,0,1
4.002,1356,1,1,0,1
4.004,1601,1,1,0,1
4.006,1996,1,1,0,1
4.008,2339,1,1,0,1
4.01,2479,1,1,0,1
4.012,2282,1,1,0,1
4.014,1867,1,1,0,1
4.016,1553,1,1,0,1
4.018,1448,1,1,0,1
4.02,1590,1,1,0,1
4.022,1941,1,1,0,1
4.024,2289,1,1,0,1
4.026,2493,1,1,0,1
4.028,2391,1,1,0,1
4.03,2001,1,1,0,1
4.032,1625,1,1,0,1
4.034,1447,1,1,0,1
4.036,1502,1,1,0,1
4.038,1805,1,1,0,1
4.04,2169,1,1,0,1
4.042,2431,1,1,0,1
4.044,2442,1,1,0,1
4.046,2123,1,1,0,1
4.048,1702,1,1,0,1
4.05,1451,1,1,0,1
4.052,1422,1,1,0,1
4.054,1652,1,1,0,1
4.056,2021,1,1,0,1
4.058,2331,1,1,0,1
4.06,2441,1,1,0,1
4.062,2220,1,1,0,1
4.064,1797,1,1,0,1
4.066,1485,1,1,0,1
4.068,1394,1,1,0,1
4.07,1557,1,1,0,1
4.072,1929,1,1,0,1
4.074,2294,1,1,0,1
4.076,2513,1,1,0,1
4.078,2419,1,1,0,1
4.08,2033,1,1,0,1
4.082,1658,1,1,0,1
4.084,1484,1,1,0,1
4.086,1541,1,1,0,1
4.088,1842,1,1,0,1
4.09,2203,1,1,0,1
4.092,2465,1,1,0,1
4.094,2471,1,1,0,1
4.096,2150,1,1,0,1
4.098,1729,1,1,0,1
4.1,1482,1,1,0,1
4.102,1458,1,1,0,1
4.104,1695,1,1,0,1
4.106,2071,1,1,0,1
4.108,2388,1,1,0,1
4.11,2505,1,1,0,1
4.112,2287,1,1,0,1
4.114,1865,1,1,0,1
4.116,1549,1,1,0,1
4.118,1449,1,1,0,1
4.12,1599,1,1,0,1
4.122,1963,1,1,0,1
4.124,2323,1,1,0,1
4.126,2537,1,1,0,1
4.128,2450,1,1,0,1
4.13,2076,1,1,0,1
4.132,1715,1,1,0,1
4.134,1553,1,1,0,1
4.136,1617,1,1,0,1
4.138,1918,1,1,0,1
4.14,2274,1,1,0,1
4.142,2525,1,1,0,1
4.144,2519,1,1,0,1
4.146,2185,1,1,0,1
4.148,1749,1,1,0,1
4.15,1485,1,1,0,1
4.152,1446,1,1,0,1
4.154,1673,1,1,0,1
4.156,2043,1,1,0,1
4.158,2365,1,1,0,1
4.16,2493,1,1,0,1
4.162,2291,1,1,0,1
4.164,1883,1,1,0,1
4.166,1582,1,1,0,1
4.168,1491,1,1,0,1
4.17,1649,1,1,0,1
4.172,2009,1,1,0,1
4.174,2359,1,1,0,1
4.176,2559,1,1,0,1
4.178,2451,1,1,0,1
4.18,2057,1,1,0,1
4.182,1675,1,1,0,1
4.184,1494,1,1,0,1
4.186,1550,1,1,0,1
4.188,1857,1,1,0,1
4.19,2227,1,1,0,1
4.192,2501,1,1,0,1
4.194,2517,1,1,0,1
4.196,2205,1,1,0,1
4.198,1790,1,1,0,1
4.2,1547,1,1,0,1
4.202,1521,1,1,0,1
4.204,1754,1,1,0,1
4.206,2129,1,1,0,1
4.208,2450,1,1,0,1
4.21,2575,1,1,0,1
4.212,2365,1,1,0,1
4.214,1949,1,1,0,1
4.216,1643,1,1,0,1
4.218,1548,1,1,0,1
4.22,1701,1,1,0,1
4.222,2059,1,1,0,1
4.224,2405,1,1,0,1
4.226,2605,1,1,0,1
4.228,2491,1,1,0,1
4.23,2092,1,1,0,1
4.232,1707,1,1,0,1
4.234,1529,1,1,0,1
4.236,1590,1,1,0,1
4.238,1901,1,1,0,1
4.24,2275,1,1,0,1
4.242,2543,1,1,0,1
4.244,2555,1,1,0,1
4.246,2244,1,1,0,1
4.248,1835,1,1,0,1
4.25,1595,1,1,0,1
4.252,1576,1,1,0,1
4.254,1816,1,1,0,1
4.256,2195,1,1,0,1
4.258,2515,1,1,0,1
4.26,2643,1,1,0,1
4.262,2447,1,1,0,1
4.264,2051,1,1,0,1
4.266,1764,1,1,0,1
4.268,1687,1,1,0,1
4.27,1851,1,1,0,1
4.272,2210,1,1,0,1
4.274,2542,1,1,0,1
4.276,2723,1,1,0,1
4.278,2591,1,1,0,1
4.28,2174,1,1,0,1
4.282,1775,1,1,0,1
4.284,1579,1,1,0,1
4.286,1617,1,1,0,1
4.288,1897,1,1,0,1
4.29,2237,1,1,0,1
4.292,2479,1,1,0,1
4.294,2469,1,1,0,1
4.296,2137,1,1,0,1
4.298,1707,1,1,0,1
4.3,1454,1,1,0,1
4.302,1428,1,1,0,1
4.304,1666,1,1,0,1
4.306,2042,1,1,0,1
4.308,2363,1,1,0,1
4.31,2481,1,1,0,1
4.312,2263,1,1,0,1
4.314,1837,1,1,0,1
4.316,1519,1,1,0,1
4.318,1416,1,1,0,1
4.32,1563,1,1,0,1
4.322,1917,1,1,0,1
4.324,2265,1,1,0,1
4.326,2461,1,1,0,1
4.328,2351,1,1,0,1
4.33,1957,1,1,0,1
4.332,1578,1,1,0,1
4.334,1402,1,1,0,1
4.336,1467,1,1,0,1
4.338,1782,1,1,0,1
4.34,2159,1,1,0,1
4.342,2431,1,1,0,1
4.344,2442,1,1,0,1
4.346,2117,1,1,0,1
4.348,1694,1,1,0,1
4.35,1444,1,1,0,1
4.352,1417,1,1,0,1
4.354,1653,1,1,0,1
4.356,2035,1,1,0,1
4.358,2371,1,1,0,1
4.36,2510,1,1,0,1
4.362,2313,1,1,0,1
4.364,1906,1,1,0,1
4.366,1610,1,1,0,1
4.368,1528,1,1,0,1
4.37,1700,1,1,0,1
4.372,2085,1,1,0,1
4.374,2483,1,1,0,1
4.376,2767,1,1,0,1
4.378,2779,1,1,0,1
4.38,2547,1,1,0,1
4.382,2371,1,1,0,1
4.384,2425,1,1,0,1
4.386,2741,1,1,0,1
4.388,3310,1,1,0,1
4.39,3919,1,1,0,1
4.392,4054,1,1,0,1
4.394,4061,1,1,0,1
4.396,3995,1,1,0,1
4.398,3658,1,1,0,1
4.4,3285,1,1,0,1
4.402,2970,1,1,0,1
4.404,2805,1,1,0,1
4.406,2711,1,1,0,1
4.408,2523,1,1,0,1
4.41,2122,1,1,0,1
4.412,1373,1,1,0,1
4.414,443,1,1,0,1
4.416,25,1,1,0,1
4.418,1,1,1,0,1
4.42,0,1,1,0,1
4.422,0,1,1,0,1
4.424,24,1,1,0,1
4.426,78,1,1,0,1
4.428,13,1,1,0,1
4.43,1,1,1,0,1
4.432,0,1,1,0,1
4.434,0,1,1,0,1
4.436,143,1,1,0,1
4.438,584,1,1,0,1
4.44,1114,1,1,0,1
4.442,1566,1,1,0,1
4.444,1766,1,1,0,1
4.446,1630,1,1,0,1
4.448,1383,1,1,0,1
4.45,1286,1,1,0,1
4.452,1396,1,1,0,1
4.454,1754,1,1,0,1
4.456,2230,1,1,0,1
4.458,2631,1,1,0,1
4.46,2815,1,1,0,1
4.462,2650,1,1,0,1
4.464,2259,1,1,0,1
4.466,1959,1,1,0,1
4.468,1861,1,1,0,1
4.47,2001,1,1,0,1
4.472,2345,1,1,0,1
4.474,2681,1,1,0,1
4.476,2871,1,1,0,1
4.478,2757,1,1,0,1
4.48,2357,1,1,0,1
4.482,1977,1,1,0,1
4.484,1799,1,1,0,1
4.486,1854,1,1,0,1
4.488,2159,1,1,0,1
4.49,2519,1,1,0,1
4.492,2778,1,1,0,1
4.494,2774,1,1,0,1
4.496,2443,1,1,0,1
4.498,2020,1,1,0,1
4.5,1772,1,1,0,1
4.502,1747,1,1,0,1
4.504,1979,1,1,0,1
4.506,2346,1,1,0,1
4.508,2654,1,1,0,1
4.51,2766,1,1,0,1
4.512,2549,1,1,0,1
4.514,2131,1,1,0,1
4.516,1819,1,1,0,1
4.518,1722,1,1,0,1
4.52,1875,1,1,0,1
4.522,2235,1,1,0,1
4.524,2583,1,1,0,1
4.526,2779,1,1,0,1
4.528,2665,1,1,0,1
4.53,2263,1,1,0,1
4.532,1881,1,1,0,1
4.534,1705,1,1,0,1
4.536,1769,1,1,0,1
4.538,2085,1,1,0,1
4.54,2461,1,1,0,1
4.542,2739,1,1,0,1
4.544,2759,1,1,0,1
4.546,2451,1,1,0,1
4.548,2041,1,1,0,1
4.55,1795,1,1,0,1
4.552,1763,1,1,0,1
4.554,1993,1,1,0,1
4.556,2363,1,1,0,1
4.558,2677,1,1,0,1
4.56,2791,1,1,0,1
4.562,2569,1,1,0,1
4.564,2135,1,1,0,1
4.566,1812,1,1,0,1
4.568,1703,1,1,0,1
4.57,1849,1,1,0,1
4.572,2207,1,1,0,1
4.574,2566,1,1,0,1
4.576,2786,1,1,0,1
4.578,2699,1,1,0,1
4.58,2327,1,1,0,1
4.582,1971,1,1,0,1
4.584,1813,1,1,0,1
4.586,1885,1,1,0,1
4.588,2204,1,1,0,1
4.59,2579,1,1,0,1
4.592,2846,1,1,0,1
4.594,2855,1,1,0,1
4.596,2538,1,1,0,1
4.598,2126,1,1,0,1
4.6,1884,1,1,0,1
4.602,1868,1,1,0,1
4.604,2110,1,1,0,1
4.606,2483,1,1,0,1
4.608,2791,1,1,0,1
4.61,2895,1,1,0,1
4.612,2667,1,1,0,1
4.614,2242,1,1,0,1
4.616,1925,1,1,0,1
4.618,1825,1,1,0,1
4.62,1981,1,1,0,1
4.622,2343,1,1,0,1
4.624,2694,1,1,0,1
4.626,2893,1,1,0,1
4.628,2782,1,1,0,1
4.63,2391,1,1,0,1
4.632,2023,1,1,0,1
4.634,1859,1,1,0,1
4.636,1931,1,1,0,1
4.638,2249,1,1,0,1
4.64,2615,1,1,0,1
4.642,2877,1,1,0,1
4.644,2877,1,1,0,1
4.646,2549,1,1,0,1
4.648,2129,1,1,0,1
4.65,1877,1,1,0,1
4.652,1852,1,1,0,1
4.654,2091,1,1,0,1
4.656,2463,1,1,0,1
4.658,2775,1,1,0,1
4.66,2883,1,1,0,1
4.662,2657,1,1,0,1
4.664,2231,1,1,0,1
4.666,1917,1,1,0,1
4.668,1817,1,1,0,1
4.67,1964,1,1,0,1
4.672,2313,1,1,0,1
4.674,2641,1,1,0,1
4.676,2819,1,1,0,1
4.678,2685,1,1,0,1
4.68,2271,1,1,0,1
4.682,1878,1,1,0,1
4.684,1683,1,1,0,1
4.686,1723,1,1,0,1
4.688,2010,1,1,0,1
4.69,2354,1,1,0,1
4.692,2596,1,1,0,1
4.694,2583,1,1,0,1
4.696,2251,1,1,0,1
4.698,1838,1,1,0,1
4.7,1601,1,1,0,1
4.702,1582,1,1,0,1
4.704,1820,1,1,0,1
4.706,2188,1,1,0,1
4.708,2490,1,1,0,1
4.71,2583,1,1,0,1
4.712,2334,1,1,0,1
4.714,1882,1,1,0,1
4.716,1541,1,1,0,1
4.718,1405,1,1,0,1
4.72,1518,1,1,0,1
4.722,1837,1,1,0,1
4.724,2151,1,1,0,1
4.726,2325,1,1,0,1
4.728,2194,1,1,0,1
4.73,1785,1,1,0,1
4.732,1406,1,1,0,1
4.734,1234,1,1,0,1
4.736,1295,1,1,0,1
4.738,1599,1,1,0,1
4.74,1957,1,1,0,1
4.742,2211,1,1,0,1
4.744,2203,1,1,0,1
4.746,1867,1,1,0,1
4.748,1443,1,1,0,1
4.75,1189,1,1,0,1
4.752,1156,1,1,0,1
4.754,1388,1,1,0,1
4.756,1759,1,1,0,1
4.758,2082,1,1,0,1
4.76,2205,1,1,0,1
4.762,1991,1,1,0,1
4.764,1581,1,1,0,1
4.766,1285,1,1,0,1
4.768,1199,1,1,0,1
4.77,1363,1,1,0,1
4.772,1731,1,1,0,1
4.774,2085,1,1,0,1
4.776,2289,1,1,0,1
4.778,2183,1,1,0,1
4.78,1789,1,1,0,1
4.782,1416,1,1,0,1
4.784,1242,1,1,0,1
4.786,1307,1,1,0,1
4.788,1625,1,1,0,1
4.79,2001,1,1,0,1
4.792,2279,1,1,0,1
4.794,2293,1,1,0,1
4.796,1975,1,1,0,1
4.798,1566,1,1,0,1
4.8,1320,1,1,0,1
4.802,1289,1,1,0,1
4.804,1516,1,1,0,1
4.806,1883,1,1,0,1
4.808,2197,1,1,0,1
4.81,2314,1,1,0,1
4.812,2105,1,1,0,1
4.814,1705,1,1,0,1
4.816,1419,1,1,0,1
4.818,1341,1,1,0,1
4.82,1505,1,1,0,1
4.822,1870,1,1,0,1
4.824,2217,1,1,0,1
4.826,2407,1,1,0,1
4.828,2282,1,1,0,1
4.83,1875,1,1,0,1
4.832,1494,1,1,0,1
4.834,1319,1,1,0,1
4.836,1383,1,1,0,1
4.838,1697,1,1,0,1
4.84,2070,1,1,0,1
4.842,2341,1,1,0,1
4.844,2347,1,1,0,1
4.846,2025,1,1,0,1
4.848,1614,1,1,0,1
4.85,1377,1,1,0,1
4.852,1362,1,1,0,1
4.854,1604,1,1,0,1
4.856,1974,1,1,0,1
4.858,2283,1,1,0,1
4.86,2391,1,1,0,1
4.862,2165,1,1,0,1
4.864,1743,1,1,0,1
4.866,1437,1,1,0,1
4.868,1347,1,1,0,1
4.87,1508,1,1,0,1
4.872,1871,1,1,0,1
4.874,2220,1,1,0,1
4.876,2415,1,1,0,1
4.878,2302,1,1,0,1
4.88,1911,1,1,0,1
4.882,1544,1,1,0,1
4.884,1373,1,1,0,1
4.886,1435,1,1,0,1
4.888,1739,1,1,0,1
4.89,2097,1,1,0,1
4.892,2355,1,1,0,1
4.894,2357,1,1,0,1
4.896,2037,1,1,0,1
4.898,1637,1,1,0,1
4.9,1411,1,1,0,1
4.902,1401,1,1,0,1
4.904,1646,1,1,0,1
4.906,2012,1,1,0,1
4.908,2311,1,1,0,1
4.91,2403,1,1,0,1
4.912,2167,1,1,0,1
4.914,1741,1,1,0,1
4.916,1441,1,1,0,1
4.918,1363,1,1,0,1
4.92,1538,1,1,0,1
4.922,1909,1,1,0,1
4.924,2261,1,1,0,1
4.926,2459,1,1,0,1
4.928,2347,1,1,0,1
4.93,1957,1,1,0,1
4.932,1594,1,1,0,1
4.934,1434,1,1,0,1
4.936,1509,1,1,0,1
4.938,1829,1,1,0,1
4.94,2197,1,1,0,1
4.942,2454,1,1,0,1
4.944,2445,1,1,0,1
4.946,2108,1,1,0,1
4.948,1681,1,1,0,1
4.95,1423,1,1,0,1
4.952,1391,1,1,0,1
4.954,1629,1,1,0,1
4.956,2007,1,1,0,1
4.958,2327,1,1,0,1
4.96,2443,1,1,0,1
4.962,2227,1,1,0,1
4.964,1813,1,1,0,1
4.966,1513,1,1,0,1
4.968,1427,1,1,0,1
4.97,1591,1,1,0,1
4.972,1955,1,1,0,1
4.974,2299,1,1,0,1
4.976,2493,1,1,0,1
4.978,2381,1,1,0,1
4.98,1991,1,1,0,1
4.982,1627,1,1,0,1
4.984,1466,1,1,0,1
4.986,1534,1,1,0,1
4.988,1843,1,1,0,1
4.99,2201,1,1,0,1
4.992,2451,1,1,0,1
4.994,2442,1,1,0,1
4.996,2111,1,1,0,1
4.998,1701,1,1,0,1
5,1466,1,1,0,1
5.002,1453,1,1,0,1
5.004,1699,1,1,0,1
5.006,2071,1,1,0,1
5.008,2379,1,1,0,1
5.01,2481,1,1,0,1
5.012,2249,1,1,0,1
5.014,1825,1,1,0,1
5.016,1517,1,1,0,1
5.018,1423,1,1,0,1
5.02,1579,1,1,0,1
5.022,1938,1,1,0,1
5.024,2285,1,1,0,1
5.026,2479,1,1,0,1
5.028,2361,1,1,0,1
5.03,1964,1,1,0,1
5.032,1596,1,1,0,1
5.034,1429,1,1,0,1
5.036,1498,1,1,0,1
5.038,1814,1,1,0,1
5.04,2185,1,1,0,1
5.042,2450,1,1,0,1
5.044,2452,1,1,0,1
5.046,2133,1,1,0,1
5.048,1733,1,1,0,1
5.05,1511,1,1,0,1
5.052,1510,1,1,0,1
5.054,1759,1,1,0,1
5.056,2136,1,1,0,1
5.058,2443,1,1,0,1
5.06,2542,1,1,0,1
5.062,2309,1,1,0,1
5.064,1881,1,1,0,1
5.066,1570,1,1,0,1
5.068,1469,1,1,0,1
5.07,1621,1,1,0,1
5.072,1973,1,1,0,1
5.074,2311,1,1,0,1
5.076,2495,1,1,0,1
5.078,2375,1,1,0,1
5.08,1978,1,1,0,1
5.082,1617,1,1,0,1
5.084,1460,1,1,0,1
5.086,1541,1,1,0,1
5.088,1862,1,1,0,1
5.09,2229,1,1,0,1
5.092,2487,1,1,0,1
5.094,2482,1,1,0,1
5.096,2153,1,1,0,1
5.098,1739,1,1,0,1
5.1,1500,1,1,0,1
5.102,1486,1,1,0,1
5.104,1727,1,1,0,1
5.106,2098,1,1,0,1
5.108,2402,1,1,0,1
5.11,2500,1,1,0,1
5.112,2265,1,1,0,1
5.114,1843,1,1,0,1
5.116,1543,1,1,0,1
5.118,1458,1,1,0,1
5.12,1629,1,1,0,1
5.122,2003,1,1,0,1
5.124,2366,1,1,0,1
5.126,2577,1,1,0,1
5.128,2471,1,1,0,1
5.13,2089,1,1,0,1
5.132,1725,1,1,0,1
5.134,1559,1,1,0,1
5.136,1625,1,1,0,1
5.138,1929,1,1,0,1
5.14,2281,1,1,0,1
5.142,2527,1,1,0,1
5.144,2516,1,1,0,1
5.146,2189,1,1,0,1
5.148,1786,1,1,0,1
5.15,1565,1,1,0,1
5.152,1566,1,1,0,1
5.154,1822,1,1,0,1
5.156,2201,1,1,0,1
5.158,2513,1,1,0,1
5.16,2619,1,1,0,1
5.162,2394,1,1,0,1
5.164,1975,1,1,0,1
5.166,1675,1,1,0,1
5.168,1588,1,1,0,1
5.17,1751,1,1,0,1
5.172,2114,1,1,0,1
5.174,2457,1,1,0,1
5.176,2645,1,1,0,1
5.178,2517,1,1,0,1
5.18,2117,1,1,0,1
5.182,1743,1,1,0,1
5.184,1580,1,1,0,1
5.186,1657,1,1,0,1
5.188,1981,1,1,0,1
5.19,2359,1,1,0,1
5.192,2635,1,1,0,1
5.194,2642,1,1,0,1
5.196,2322,1,1,0,1
5.198,1909,1,1,0,1
5.2,1668,1,1,0,1
5.202,1643,1,1,0,1
5.204,1875,1,1,0,1
5.206,2234,1,1,0,1
5.208,2527,1,1,0,1
5.21,2614,1,1,0,1
5.212,2365,1,1,0,1
5.214,1923,1,1,0,1
5.216,1605,1,1,0,1
5.218,1500,1,1,0,1
5.22,1644,1,1,0,1
5.222,1987,1,1,0,1
5.224,2316,1,1,0,1
5.226,2495,1,1,0,1
5.228,2371,1,1,0,1
5.23,1971,1,1,0,1
5.232,1603,1,1,0,1
5.234,1437,1,1,0,1
5.236,1505,1,1,0,1
5.238,1818,1,1,0,1
5.24,2181,1,1,0,1
5.242,2438,1,1,0,1
5.244,2431,1,1,0,1
5.246,2102,1,1,0,1
5.248,1689,1,1,0,1
5.25,1448,1,1,0,1
5.252,1426,1,1,0,1
5.254,1659,1,1,0,1
5.256,2019,1,1,0,1
5.258,2318,1,1,0,1
5.26,2417,1,1,0,1
5.262,2190,1,1,0,1
5.264,1779,1,1,0,1
5.266,1496,1,1,0,1
5.268,1428,1,1,0,1
5.27,1610,1,1,0,1
5.272,1985,1,1,0,1
5.274,2342,1,1,0,1
5.276,2539,1,1,0,1
5.278,2421,1,1,0,1
5.28,2023,1,1,0,1
5.282,1653,1,1,0,1
5.284,1483,1,1,0,1
5.286,1548,1,1,0,1
5.288,1853,1,1,0,1
5.29,2207,1,1,0,1
5.292,2459,1,1,0,1
5.294,2453,1,1,0,1
5.296,2129,1,1,0,1
5.298,1731,1,1,0,1
5.3,1517,1,1,0,1
5.302,1539,1,1,0,1
5.304,1833,1,1,0,1
5.306,2277,1,1,0,1
5.308,2686,1,1,0,1
5.31,2921,1,1,0,1
5.312,2853,1,1,0,1
5.314,2626,1,1,0,1
5.316,2545,1,1,0,1
5.318,2706,1,1,0,1
5.32,3125,1,1,0,1
5.322,3726,1,1,0,1
5.324,4042,1,1,0,1
5.326,4061,1,1,0,1
5.328,4055,1,1,0,1
5.33,3726,1,1,0,1
5.332,3239,1,1,0,1
5.334,2806,1,1,0,1
5.336,2507,1,1,0,1
5.338,2383,1,1,0,1
5.34,2271,1,1,0,1
5.342,2030,1,1,0,1
5.344,1512,1,1,0,1
5.346,694,1,1,0,1
5.348,59,1,1,0,1
5.35,2,1,1,0,1
5.352,0,1,1,0,1
5.354,0,1,1,0,1
5.356,33,1,1,0,1
5.358,168,1,1,0,1
5.36,245,1,1,0,1
5.362,107,1,1,0,1
5.364,5,1,1,0,1
5.366,0,1,1,0,1
5.368,65,1,1,0,1
5.37,399,1,1,0,1
5.372,938,1,1,0,1
5.374,1467,1,1,0,1
5.376,1844,1,1,0,1
5.378,1897,1,1,0,1
5.38,1660,1,1,0,1
5.382,1438,1,1,0,1
5.384,1407,1,1,0,1
5.386,1606,1,1,0,1
5.388,2035,1,1,0,1
5.39,2495,1,1,0,1
5.392,2830,1,1,0,1
5.394,2873,1,1,0,1
5.396,2567,1,1,0,1
5.398,2157,1,1,0,1
5.4,1907,1,1,0,1
5.402,1876,1,1,0,1
5.404,2107,1,1,0,1
5.406,2467,1,1,0,1
5.408,2766,1,1,0,1
5.41,2862,1,1,0,1
5.412,2629,1,1,0,1
5.414,2205,1,1,0,1
5.416,1899,1,1,0,1
5.418,1803,1,1,0,1
5.42,1955,1,1,0,1
5.422,2299,1,1,0,1
5.424,2628,1,1,0,1
5.426,2803,1,1,0,1
5.428,2669,1,1,0,1
5.43,2261,1,1,0,1
5.432,1885,1,1,0,1
5.434,1717,1,1,0,1
5.436,1789,1,1,0,1
5.438,2111,1,1,0,1
5.44,2483,1,1,0,1
5.442,2750,1,1,0,1
5.444,2757,1,1,0,1
5.446,2443,1,1,0,1
5.448,2044,1,1,0,1
5.45,1817,1,1,0,1
5.452,1807,1,1,0,1
5.454,2053,1,1,0,1
5.456,2418,1,1,0,1
5.458,2717,1,1,0,1
5.46,2807,1,1,0,1
5.462,2569,1,1,0,1
5.464,2141,1,1,0,1
5.466,1835,1,1,0,1
5.468,1740,1,1,0,1
5.47,1894,1,1,0,1
5.472,2243,1,1,0,1
5.474,2575,1,1,0,1
5.476,2757,1,1,0,1
5.478,2629,1,1,0,1
5.48,2229,1,1,0,1
5.482,1859,1,1,0,1
5.484,1695,1,1,0,1
5.486,1771,1,1,0,1
5.488,2093,1,1,0,1
5.49,2465,1,1,0,1
5.492,2727,1,1,0,1
5.494,2719,1,1,0,1
5.496,2390,1,1,0,1
5.498,1983,1,1,0,1
5.5,1757,1,1,0,1
5.502,1755,1,1,0,1
5.504,2014,1,1,0,1
5.506,2395,1,1,0,1
5.508,2705,1,1,0,1
5.51,2805,1,1,0,1
5.512,2581,1,1,0,1
5.514,2169,1,1,0,1
5.516,1877,1,1,0,1
5.518,1800,1,1,0,1
5.52,1971,1,1,0,1
5.522,2338,1,1,0,1
5.524,2683,1,1,0,1
5.526,2877,1,1,0,1
5.528,2757,1,1,0,1
5.53,2359,1,1,0,1
5.532,1991,1,1,0,1
5.534,1828,1,1,0,1
5.536,1901,1,1,0,1
5.538,2221,1,1,0,1
5.54,2591,1,1,0,1
5.542,2854,1,1,0,1
5.544,2855,1,1,0,1
5.546,2535,1,1,0,1
5.548,2137,1,1,0,1
5.55,1909,1,1,0,1
5.552,1903,1,1,0,1
5.554,2155,1,1,0,1
5.556,2527,1,1,0,1
5.558,2835,1,1,0,1
5.56,2931,1,1,0,1
5.562,2698,1,1,0,1
5.564,2270,1,1,0,1
5.566,1960,1,1,0,1
5.568,1865,1,1,0,1
5.57,2021,1,1,0,1
5.572,2377,1,1,0,1
5.574,2713,1,1,0,1
5.576,2900,1,1,0,1
5.578,2779,1,1,0,1
5.58,2389,1,1,0,1
5.582,2026,1,1,0,1
5.584,1865,1,1,0,1
5.586,1935,1,1,0,1
5.588,2246,1,1,0,1
5.59,2603,1,1,0,1
5.592,2853,1,1,0,1
5.594,2839,1,1,0,1
5.596,2503,1,1,0,1
5.598,2090,1,1,0,1
5.6,1846,1,1,0,1
5.602,1822,1,1,0,1
5.604,2055,1,1,0,1
5.606,2413,1,1,0,1
5.608,2710,1,1,0,1
5.61,2799,1,1,0,1
5.612,2556,1,1,0,1
5.614,2124,1,1,0,1
5.616,1809,1,1,0,1
5.618,1707,1,1,0,1
5.62,1851,1,1,0,1
5.622,2193,1,1,0,1
5.624,2517,1,1,0,1
5.626,2685,1,1,0,1
5.628,2542,1,1,0,1
5.63,2129,1,1,0,1
5.632,1745,1,1,0,1
5.634,1559,1,1,0,1
5.636,1606,1,1,0,1
5.638,1891,1,1,0,1
5.64,2223,1,1,0,1
5.642,2446,1,1,0,1
5.644,2409,1,1,0,1
5.646,2057,1,1,0,1
5.648,1630,1,1,0,1
5.65,1388,1,1,0,1
5.652,1371,1,1,0,1
5.654,1618,1,1,0,1
5.656,1989,1,1,0,1
5.658,2293,1,1,0,1
5.66,2386,1,1,0,1
5.662,2142,1,1,0,1
5.664,1707,1,1,0,1
5.666,1388,1,1,0,1
5.668,1276,1,1,0,1
5.67,1410,1,1,0,1
5.672,1738,1,1,0,1
5.674,2052,1,1,0,1
5.676,2218,1,1,0,1
5.678,2083,1,1,0,1
5.68,1682,1,1,0,1
5.682,1323,1,1,0,1
5.684,1166,1,1,0,1
5.686,1246,1,1,0,1
5.688,1575,1,1,0,1
5.69,1955,1,1,0,1
5.692,2227,1,1,0,1
5.694,2226,1,1,0,1
5.696,1897,1,1,0,1
