#Digilent WaveForms Logic Analyzer Acquisition
#Device Name: Discovery2
#Serial Number: SN:210321AA2ABB
#Date Time: 2024-08-13 19:39:39.188
#Sample rate: 511.999Hz
#Samples: 4096

Time (s),Data,DV,MISO,MOSI,SCK
-2.39844364,2363,1,1,0,1
-2.39649051,2325,1,1,0,1
-2.39453738,2282,1,1,0,1
-2.39258425,2237,1,1,0,1
-2.39063112,2193,1,1,0,1
-2.38867799,2143,1,1,0,1
-2.38672486,2093,1,1,0,1
-2.38477173,2038,1,1,0,1
-2.3828186,1981,1,1,0,1
-2.38086547,1923,1,1,0,1
-2.37891234,1866,1,1,0,1
-2.37695921,1814,1,1,0,1
-2.37500608,1764,1,1,0,1
-2.37305295,1714,1,1,0,1
-2.37109982,1662,1,1,0,1
-2.36914669,1612,1,1,0,1
-2.36719356,1563,1,1,0,1
-2.36524043,1513,1,1,0,1
-2.3632873,1467,1,1,0,1
-2.36133417,1424,0,0,0,0
-2.35938104,1024,0,1,0,0
-2.35742791,0,0,1,1,0
-2.35547478,1354,1,1,0,1
-2.35352165,1326,1,1,0,1
-2.35156852,1302,1,1,0,1
-2.34961539,1279,1,1,0,1
-2.34766226,1259,1,1,0,1
-2.34570913,1243,1,1,0,1
-2.343756,1229,1,1,0,1
-2.34180287,1219,1,1,0,1
-2.33984974,1214,1,1,0,1
-2.33789661,1218,1,1,0,1
-2.33594348,1225,1,1,0,1
-2.33399035,1231,1,1,0,1
-2.33203722,1240,1,1,0,1
-2.33008409,1249,1,1,0,1
-2.32813096,1258,1,1,0,1
-2.32617783,1267,1,1,0,1
-2.3242247,1277,1,1,0,1
-2.32227157,1289,1,1,0,1
-2.32031844,1302,1,1,0,1
-2.31836531,1318,1,1,0,1
-2.31641218,1330,1,1,0,1
-2.31445905,1343,1,1,0,1
-2.31250592,1357,1,1,0,1
-2.31055279,1369,1,1,0,1
-2.30859966,1379,1,1,0,1
-2.30664653,1393,1,1,0,1
-2.3046934,1411,1,1,0,1
-2.30274027,1428,1,1,0,1
-2.30078714,1442,1,1,0,1
-2.29883401,1453,1,1,0,1
-2.29688088,1465,1,1,0,1
-2.29492775,1475,1,1,0,1
-2.29297462,1483,1,1,0,1
-2.29102149,1493,1,1,0,1
-2.28906836,1506,1,1,0,1
-2.28711523,1521,1,1,0,1
-2.2851621,1535,1,1,0,1
-2.28320897,1556,1,1,0,1
-2.28125584,1573,1,1,0,1
-2.27930271,1587,1,1,0,1
-2.27734958,1568,0,1,0,0
-2.27539645,1024,0,1,0,0
-2.27344332,0,0,1,1,0
-2.27149019,1627,1,1,0,1
-2.26953706,1642,1,1,0,1
-2.26758393,1657,1,1,0,1
-2.2656308,1671,1,1,0,1
-2.26367767,1682,1,1,0,1
-2.26172454,1689,1,1,0,1
-2.25977141,1692,1,1,0,1
-2.25781828,1693,1,1,0,1
-2.25586515,1694,1,1,0,1
-2.25391202,1697,1,1,0,1
-2.25195889,1700,1,1,0,1
-2.25000576,1701,1,1,0,1
-2.24805263,1703,1,1,0,1
-2.2460995,1705,1,1,0,1
-2.24414637,1707,1,1,0,1
-2.24219324,1711,1,1,0,1
-2.24024011,1716,1,1,0,1
-2.23828698,1722,1,1,0,1
-2.23633385,1729,1,1,0,1
-2.23438072,1734,1,1,0,1
-2.23242759,1734,1,1,0,1
-2.23047446,1734,1,1,0,1
-2.22852133,1737,1,1,0,1
-2.2265682,1740,1,1,0,1
-2.22461507,1746,1,1,0,1
-2.22266194,1755,1,1,0,1
-2.22070881,1763,1,1,0,1
-2.21875568,1767,1,1,0,1
-2.21680255,1768,1,1,0,1
-2.21484942,1768,1,1,0,1
-2.21289629,1770,1,1,0,1
-2.21094316,1773,1,1,0,1
-2.20899003,1778,1,1,0,1
-2.2070369,1783,1,1,0,1
-2.20508377,1786,1,1,0,1
-2.20313064,1787,1,1,0,1
-2.20117751,1788,1,1,0,1
-2.19922438,1787,1,1,0,1
-2.19727125,1783,1,1,0,1
-2.19531812,1780,0,0,0,0
-2.19336499,1664,0,1,0,0
-2.19141186,0,0,0,0,0
-2.18945873,1781,1,1,0,1
-2.1875056,1779,1,1,0,1
-2.18555247,1778,1,1,0,1
-2.18359934,1779,1,1,0,1
-2.18164621,1783,1,1,0,1
-2.17969308,1786,1,1,0,1
-2.17773995,1790,1,1,0,1
-2.17578682,1796,1,1,0,1
-2.17383369,1800,1,1,0,1
-2.17188056,1807,1,1,0,1
-2.16992743,1814,1,1,0,1
-2.1679743,1819,1,1,0,1
-2.16602117,1822,1,1,0,1
-2.16406804,1825,1,1,0,1
-2.16211491,1827,1,1,0,1
-2.16016178,1830,1,1,0,1
-2.15820865,1834,1,1,0,1
-2.15625552,1839,1,1,0,1
-2.15430239,1845,1,1,0,1
-2.15234926,1851,1,1,0,1
-2.15039613,1859,1,1,0,1
-2.148443,1863,1,1,0,1
-2.14648987,1867,1,1,0,1
-2.14453674,1870,1,1,0,1
-2.14258361,1875,1,1,0,1
-2.14063048,1881,1,1,0,1
-2.13867735,1887,1,1,0,1
-2.13672422,1893,1,1,0,1
-2.13477109,1898,1,1,0,1
-2.13281796,1901,1,1,0,1
-2.13086483,1903,1,1,0,1
-2.1289117,1905,1,1,0,1
-2.12695857,1907,1,1,0,1
-2.12500544,1911,1,1,0,1
-2.12305231,1915,1,1,0,1
-2.12109918,1917,1,1,0,1
-2.11914605,1916,1,1,0,1
-2.11719292,1913,1,1,0,1
-2.11523979,1907,1,1,0,1
-2.11328666,1902,1,0,0,1
-2.11133353,1896,0,1,0,0
-2.1093804,1792,0,1,0,0
-2.10742727,0,0,1,1,0
-2.10547414,1907,1,1,0,1
-2.10352101,1914,1,1,0,1
-2.10156788,1923,1,1,0,1
-2.09961475,1927,1,1,0,1
-2.09766162,1931,1,1,0,1
-2.09570849,1934,1,1,0,1
-2.09375536,1937,1,1,0,1
-2.09180223,1934,1,1,0,1
-2.0898491,1933,1,1,0,1
-2.08789597,1937,1,1,0,1
-2.08594284,1943,1,1,0,1
-2.08398971,1951,1,1,0,1
-2.08203658,1957,1,1,0,1
-2.08008345,1959,1,1,0,1
-2.07813032,1959,1,1,0,1
-2.07617719,1959,1,1,0,1
-2.07422406,1960,1,1,0,1
-2.07227093,1963,1,1,0,1
-2.0703178,1966,1,1,0,1
-2.06836467,1966,1,1,0,1
-2.06641154,1964,1,1,0,1
-2.06445841,1959,1,1,0,1
-2.06250528,1955,1,1,0,1
-2.06055215,1953,1,1,0,1
-2.05859902,1951,1,1,0,1
-2.05664589,1951,1,1,0,1
-2.05469276,1955,1,1,0,1
-2.05273963,1956,1,1,0,1
-2.0507865,1955,1,1,0,1
-2.04883337,1951,1,1,0,1
-2.04688024,1951,1,1,0,1
-2.04492711,1951,1,1,0,1
-2.04297398,1951,1,1,0,1
-2.04102085,1953,1,1,0,1
-2.03906772,1957,1,1,0,1
-2.03711459,1963,1,1,0,1
-2.03516146,1971,1,1,0,1
-2.03320833,1972,1,1,0,1
-2.0312552,1973,1,1,0,1
-2.02930207,1971,1,1,0,1
-2.02734894,1952,0,1,0,0
-2.02539581,1024,0,1,0,0
-2.02344268,0,0,1,1,0
-2.02148955,1967,1,1,0,1
-2.01953642,1973,1,1,0,1
-2.01758329,1978,1,1,0,1
-2.01563016,1983,1,1,0,1
-2.01367703,1986,1,1,0,1
-2.0117239,1987,1,1,0,1
-2.00977077,1989,1,1,0,1
-2.00781764,1990,1,1,0,1
-2.00586451,1991,1,1,0,1
-2.00391138,1995,1,1,0,1
-2.00195825,1997,1,1,0,1
-2.00000512,2001,1,1,0,1
-1.99805199,2005,1,1,0,1
-1.99609886,2009,1,1,0,1
-1.99414573,2011,1,1,0,1
-1.9921926,2014,1,1,0,1
-1.99023947,2021,1,1,0,1
-1.98828634,2027,1,1,0,1
-1.98633321,2037,1,1,0,1
-1.98438008,2045,1,1,0,1
-1.98242695,2055,1,1,0,1
-1.98047382,2060,1,1,0,1
-1.97852069,2063,1,1,0,1
-1.97656756,2069,1,1,0,1
-1.97461443,2077,1,1,0,1
-1.9726613,2086,1,1,0,1
-1.97070817,2093,1,1,0,1
-1.96875504,2100,1,1,0,1
-1.96680191,2107,1,1,0,1
-1.96484878,2111,1,1,0,1
-1.96289565,2116,1,1,0,1
-1.96094252,2121,1,1,0,1
-1.95898939,2127,1,1,0,1
-1.95703626,2133,1,1,0,1
-1.95508313,2138,1,1,0,1
-1.95313,2138,1,1,0,1
-1.95117687,2141,1,1,0,1
-1.94922374,2145,1,1,0,1
-1.94727061,2150,1,1,0,1
-1.94531748,2152,0,0,0,0
-1.94336435,2048,0,1,0,0
-1.94141122,0,0,1,0,0
-1.93945809,0,0,1,1,0
-1.93750496,2166,1,1,0,1
-1.93555183,2173,1,1,0,1
-1.9335987,2179,1,1,0,1
-1.93164557,2183,1,1,0,1
-1.92969244,2189,1,1,0,1
-1.92773931,2195,1,1,0,1
-1.92578618,2203,1,1,0,1
-1.92383305,2217,1,1,0,1
-1.92187992,2235,1,1,0,1
-1.91992679,2254,1,1,0,1
-1.91797366,2268,1,1,0,1
-1.91602053,2277,1,1,0,1
-1.9140674,2278,1,1,0,1
-1.91211427,2275,1,1,0,1
-1.91016114,2265,1,1,0,1
-1.90820801,2254,1,1,0,1
-1.90625488,2242,1,1,0,1
-1.90430175,2229,1,1,0,1
-1.90234862,2215,1,1,0,1
-1.90039549,2196,1,1,0,1
-1.89844236,2174,1,1,0,1
-1.89648923,2153,1,1,0,1
-1.8945361,2131,1,1,0,1
-1.89258297,2106,1,1,0,1
-1.89062984,2078,1,1,0,1
-1.88867671,2047,1,1,0,1
-1.88672358,2018,1,1,0,1
-1.88477045,1986,1,1,0,1
-1.88281732,1953,1,1,0,1
-1.88086419,1923,1,1,0,1
-1.87891106,1897,1,1,0,1
-1.87695793,1877,1,1,0,1
-1.8750048,1860,1,1,0,1
-1.87305167,1847,1,1,0,1
-1.87109854,1842,1,1,0,1
-1.86914541,1839,1,1,0,1
-1.86719228,1838,1,1,0,1
-1.86523915,1838,1,1,0,1
-1.86328602,1838,1,0,0,1
-1.86133289,1840,0,0,0,0
-1.85937976,1792,0,1,0,0
-1.85742663,0,0,1,1,0
-1.8554735,1854,1,1,0,1
-1.85352037,1865,1,1,0,1
-1.85156724,1869,1,1,0,1
-1.84961411,1870,1,1,0,1
-1.84766098,1870,1,1,0,1
-1.84570785,1869,1,1,0,1
-1.84375472,1867,1,1,0,1
-1.84180159,1865,1,1,0,1
-1.83984846,1866,1,1,0,1
-1.83789533,1871,1,1,0,1
-1.8359422,1878,1,1,0,1
-1.83398907,1885,1,1,0,1
-1.83203594,1892,1,1,0,1
-1.83008281,1898,1,1,0,1
-1.82812968,1907,1,1,0,1
-1.82617655,1918,1,1,0,1
-1.82422342,1935,1,1,0,1
-1.82227029,1951,1,1,0,1
-1.82031716,1962,1,1,0,1
-1.81836403,1966,1,1,0,1
-1.8164109,1970,1,1,0,1
-1.81445777,1973,1,1,0,1
-1.81250464,1982,1,1,0,1
-1.81055151,2011,1,1,0,1
-1.80859838,2076,1,1,0,1
-1.80664525,2179,1,1,0,1
-1.80469212,2323,1,1,0,1
-1.80273899,2514,1,1,0,1
-1.80078586,2751,1,1,0,1
-1.79883273,3042,1,1,0,1
-1.7968796,3380,1,1,0,1
-1.79492647,3746,1,1,0,1
-1.79297334,4030,1,1,0,1
-1.79102021,4059,1,1,0,1
-1.78906708,4061,1,1,0,1
-1.78711395,4062,1,1,0,1
-1.78516082,4061,1,1,0,1
-1.78320769,4061,1,1,0,1
-1.78125456,4003,1,1,0,1
-1.77930143,3781,1,1,0,1
-1.7773483,3424,0,0,0,0
-1.77539517,2048,0,1,0,0
-1.77344204,0,0,1,1,0
-1.77148891,2449,1,1,0,1
-1.76953578,1838,1,1,0,1
-1.76758265,1196,1,1,0,1
-1.76562952,569,1,1,0,1
-1.76367639,68,1,1,0,1
-1.76172326,3,1,1,0,1
-1.75977013,0,1,1,0,1
-1.757817,0,1,1,0,1
-1.75586387,0,1,1,0,1
-1.75391074,0,1,1,0,1
-1.75195761,0,1,1,0,1
-1.75000448,0,1,1,0,1
-1.74805135,0,1,1,0,1
-1.74609822,0,1,1,0,1
-1.74414509,0,1,1,0,1
-1.74219196,0,1,1,0,1
-1.74023883,0,1,1,0,1
-1.7382857,10,1,1,0,1
-1.73633257,102,1,1,0,1
-1.73437944,263,1,1,0,1
-1.73242631,475,1,1,0,1
-1.73047318,725,1,1,0,1
-1.72852005,994,1,1,0,1
-1.72656692,1263,1,1,0,1
-1.72461379,1521,1,1,0,1
-1.72266066,1756,1,1,0,1
-1.72070753,1963,1,1,0,1
-1.7187544,2141,1,1,0,1
-1.71680127,2285,1,1,0,1
-1.71484814,2399,1,1,0,1
-1.71289501,2487,1,1,0,1
-1.71094188,2554,1,1,0,1
-1.70898875,2602,1,1,0,1
-1.70703562,2631,1,1,0,1
-1.70508249,2646,1,1,0,1
-1.70312936,2652,1,1,0,1
-1.70117623,2650,1,1,0,1
-1.6992231,2642,1,1,0,1
-1.69726997,2631,1,1,0,1
-1.69531684,2618,0,1,0,0
-1.69336371,2560,0,0,0,0
-1.69141058,0,0,1,0,0
-1.68945745,0,0,1,1,0
-1.68750432,2565,1,1,0,1
-1.68555119,2547,1,1,0,1
-1.68359806,2532,1,1,0,1
-1.68164493,2519,1,1,0,1
-1.6796918,2509,1,1,0,1
-1.67773867,2498,1,1,0,1
-1.67578554,2490,1,1,0,1
-1.67383241,2486,1,1,0,1
-1.67187928,2484,1,1,0,1
-1.66992615,2483,1,1,0,1
-1.66797302,2478,1,1,0,1
-1.66601989,2473,1,1,0,1
-1.66406676,2468,1,1,0,1
-1.66211363,2465,1,1,0,1
-1.6601605,2463,1,1,0,1
-1.65820737,2463,1,1,0,1
-1.65625424,2463,1,1,0,1
-1.65430111,2463,1,1,0,1
-1.65234798,2460,1,1,0,1
-1.65039485,2458,1,1,0,1
-1.64844172,2457,1,1,0,1
-1.64648859,2455,1,1,0,1
-1.64453546,2452,1,1,0,1
-1.64258233,2447,1,1,0,1
-1.6406292,2442,1,1,0,1
-1.63867607,2438,1,1,0,1
-1.63672294,2429,1,1,0,1
-1.63476981,2419,1,1,0,1
-1.63281668,2410,1,1,0,1
-1.63086355,2396,1,1,0,1
-1.62891042,2383,1,1,0,1
-1.62695729,2377,1,1,0,1
-1.62500416,2373,1,1,0,1
-1.62305103,2371,1,1,0,1
-1.6210979,2370,1,1,0,1
-1.61914477,2371,1,1,0,1
-1.61719164,2375,1,1,0,1
-1.61523851,2383,1,1,0,1
-1.61328538,2390,1,0,0,1
-1.61133225,2392,0,1,0,0
-1.60937912,2304,0,1,0,0
-1.60742599,0,0,1,1,0
-1.60547286,2413,1,1,0,1
-1.60351973,2421,1,1,0,1
-1.6015666,2427,1,1,0,1
-1.59961347,2434,1,1,0,1
-1.59766034,2436,1,1,0,1
-1.59570721,2438,1,1,0,1
-1.59375408,2439,1,1,0,1
-1.59180095,2443,1,1,0,1
-1.58984782,2447,1,1,0,1
-1.58789469,2453,1,1,0,1
-1.58594156,2458,1,1,0,1
-1.58398843,2461,1,1,0,1
-1.5820353,2466,1,1,0,1
-1.58008217,2470,1,1,0,1
-1.57812904,2479,1,1,0,1
-1.57617591,2490,1,1,0,1
-1.57422278,2500,1,1,0,1
-1.57226965,2513,1,1,0,1
-1.57031652,2524,1,1,0,1
-1.56836339,2533,1,1,0,1
-1.56641026,2539,1,1,0,1
-1.56445713,2543,1,1,0,1
-1.562504,2547,1,1,0,1
-1.56055087,2551,1,1,0,1
-1.55859774,2558,1,1,0,1
-1.55664461,2567,1,1,0,1
-1.55469148,2574,1,1,0,1
-1.55273835,2580,1,1,0,1
-1.55078522,2584,1,1,0,1
-1.54883209,2583,1,1,0,1
-1.54687896,2582,1,1,0,1
-1.54492583,2582,1,1,0,1
-1.5429727,2582,1,1,0,1
-1.54101957,2583,1,1,0,1
-1.53906644,2585,1,1,0,1
-1.53711331,2583,1,1,0,1
-1.53516018,2581,1,1,0,1
-1.53320705,2572,1,1,0,1
-1.53125392,2559,1,1,0,1
-1.52930079,2549,1,1,0,1
-1.52734766,2528,0,0,0,0
-1.52539453,2048,0,0,0,0
-1.5234414,0,0,1,0,0
-1.52148827,2523,1,1,0,1
-1.51953514,2517,1,1,0,1
-1.51758201,2507,1,1,0,1
-1.51562888,2499,1,1,0,1
-1.51367575,2487,1,1,0,1
-1.51172262,2474,1,1,0,1
-1.50976949,2455,1,1,0,1
-1.50781636,2442,1,1,0,1
-1.50586323,2429,1,1,0,1
-1.5039101,2414,1,1,0,1
-1.50195697,2399,1,1,0,1
-1.50000384,2381,1,1,0,1
-1.49805071,2362,1,1,0,1
-1.49609758,2343,1,1,0,1
-1.49414445,2326,1,1,0,1
-1.49219132,2311,1,1,0,1
-1.49023819,2295,1,1,0,1
-1.48828506,2279,1,1,0,1
-1.48633193,2261,1,1,0,1
-1.4843788,2239,1,1,0,1
-1.48242567,2213,1,1,0,1
-1.48047254,2186,1,1,0,1
-1.47851941,2162,1,1,0,1
-1.47656628,2141,1,1,0,1
-1.47461315,2121,1,1,0,1
-1.47266002,2097,1,1,0,1
-1.47070689,2071,1,1,0,1
-1.46875376,2042,1,1,0,1
-1.46680063,2012,1,1,0,1
-1.4648475,1979,1,1,0,1
-1.46289437,1945,1,1,0,1
-1.46094124,1909,1,1,0,1
-1.45898811,1875,1,1,0,1
-1.45703498,1845,1,1,0,1
-1.45508185,1818,1,1,0,1
-1.45312872,1794,1,1,0,1
-1.45117559,1770,1,1,0,1
-1.44922246,1750,1,1,0,1
-1.44726933,1729,1,1,0,1
-1.4453162,1706,0,1,0,0
-1.44336307,1664,0,0,0,0
-1.44140994,0,0,0,0,0
-1.43945681,0,0,1,1,0
-1.43750368,1657,1,1,0,1
-1.43555055,1646,1,1,0,1
-1.43359742,1636,1,1,0,1
-1.43164429,1625,1,1,0,1
-1.42969116,1615,1,1,0,1
-1.42773803,1607,1,1,0,1
-1.4257849,1599,1,1,0,1
-1.42383177,1593,1,1,0,1
-1.42187864,1590,1,1,0,1
-1.41992551,1589,1,1,0,1
-1.41797238,1590,1,1,0,1
-1.41601925,1591,1,1,0,1
-1.41406612,1595,1,1,0,1
-1.41211299,1599,1,1,0,1
-1.41015986,1606,1,1,0,1
-1.40820673,1614,1,1,0,1
-1.4062536,1622,1,1,0,1
-1.40430047,1630,1,1,0,1
-1.40234734,1636,1,1,0,1
-1.40039421,1641,1,1,0,1
-1.39844108,1646,1,1,0,1
-1.39648795,1650,1,1,0,1
-1.39453482,1653,1,1,0,1
-1.39258169,1657,1,1,0,1
-1.39062856,1666,1,1,0,1
-1.38867543,1673,1,1,0,1
-1.3867223,1677,1,1,0,1
-1.38476917,1681,1,1,0,1
-1.38281604,1686,1,1,0,1
-1.38086291,1695,1,1,0,1
-1.37890978,1705,1,1,0,1
-1.37695665,1713,1,1,0,1
-1.37500352,1719,1,1,0,1
-1.37305039,1725,1,1,0,1
-1.37109726,1730,1,1,0,1
-1.36914413,1733,1,1,0,1
-1.367191,1734,1,1,0,1
-1.36523787,1734,1,1,0,1
-1.36328474,1734,1,0,0,1
-1.36133161,1736,0,0,0,0
-1.35937848,1536,0,1,0,0
-1.35742535,0,0,1,1,0
-1.35547222,1751,1,1,0,1
-1.35351909,1761,1,1,0,1
-1.35156596,1770,1,1,0,1
-1.34961283,1780,1,1,0,1
-1.3476597,1787,1,1,0,1
-1.34570657,1791,1,1,0,1
-1.34375344,1797,1,1,0,1
-1.34180031,1801,1,1,0,1
-1.33984718,1804,1,1,0,1
-1.33789405,1807,1,1,0,1
-1.33594092,1810,1,1,0,1
-1.33398779,1809,1,1,0,1
-1.33203466,1803,1,1,0,1
-1.33008153,1797,1,1,0,1
-1.3281284,1791,1,1,0,1
-1.32617527,1790,1,1,0,1
-1.32422214,1791,1,1,0,1
-1.32226901,1795,1,1,0,1
-1.32031588,1799,1,1,0,1
-1.31836275,1805,1,1,0,1
-1.31640962,1809,1,1,0,1
-1.31445649,1811,1,1,0,1
-1.31250336,1815,1,1,0,1
-1.31055023,1818,1,1,0,1
-1.3085971,1823,1,1,0,1
-1.30664397,1832,1,1,0,1
-1.30469084,1841,1,1,0,1
-1.30273771,1845,1,1,0,1
-1.30078458,1847,1,1,0,1
-1.29883145,1846,1,1,0,1
-1.29687832,1847,1,1,0,1
-1.29492519,1847,1,1,0,1
-1.29297206,1849,1,1,0,1
-1.29101893,1854,1,1,0,1
-1.2890658,1861,1,1,0,1
-1.28711267,1867,1,1,0,1
-1.28515954,1871,1,1,0,1
-1.28320641,1873,1,1,0,1
-1.28125328,1873,1,1,0,1
-1.27930015,1873,1,1,0,1
-1.27734702,1872,0,1,0,0
-1.27539389,1024,0,1,0,0
-1.27344076,0,0,1,0,0
-1.27148763,1881,1,1,0,1
-1.2695345,1881,1,1,0,1
-1.26758137,1881,1,1,0,1
-1.26562824,1881,1,1,0,1
-1.26367511,1879,1,1,0,1
-1.26172198,1882,1,1,0,1
-1.25976885,1885,1,1,0,1
-1.25781572,1890,1,1,0,1
-1.25586259,1897,1,1,0,1
-1.25390946,1901,1,1,0,1
-1.25195633,1903,1,1,0,1
-1.2500032,1905,1,1,0,1
-1.24805007,1905,1,1,0,1
-1.24609694,1906,1,1,0,1
-1.24414381,1905,1,1,0,1
-1.24219068,1901,1,1,0,1
-1.24023755,1897,1,1,0,1
-1.23828442,1895,1,1,0,1
-1.23633129,1893,1,1,0,1
-1.23437816,1887,1,1,0,1
-1.23242503,1883,1,1,0,1
-1.2304719,1883,1,1,0,1
-1.22851877,1885,1,1,0,1
-1.22656564,1890,1,1,0,1
-1.22461251,1893,1,1,0,1
-1.22265938,1898,1,1,0,1
-1.22070625,1902,1,1,0,1
-1.21875312,1906,1,1,0,1
-1.21679999,1908,1,1,0,1
-1.21484686,1911,1,1,0,1
-1.21289373,1914,1,1,0,1
-1.2109406,1917,1,1,0,1
-1.20898747,1922,1,1,0,1
-1.20703434,1927,1,1,0,1
-1.20508121,1929,1,1,0,1
-1.20312808,1929,1,1,0,1
-1.20117495,1926,1,1,0,1
-1.19922182,1925,1,1,0,1
-1.19726869,1924,1,1,0,1
-1.19531556,1922,0,1,0,0
-1.19336243,1920,0,0,0,0
-1.1914093,0,0,0,0,0
-1.18945617,0,0,1,1,0
-1.18750304,1933,1,1,0,1
-1.18554991,1937,1,1,0,1
-1.18359678,1939,1,1,0,1
-1.18164365,1941,1,1,0,1
-1.17969052,1942,1,1,0,1
-1.17773739,1945,1,1,0,1
-1.17578426,1947,1,1,0,1
-1.17383113,1953,1,1,0,1
-1.171878,1957,1,1,0,1
-1.16992487,1959,1,1,0,1
-1.16797174,1959,1,1,0,1
-1.16601861,1957,1,1,0,1
-1.16406548,1956,1,1,0,1
-1.16211235,1954,1,1,0,1
-1.16015922,1950,1,1,0,1
-1.15820609,1949,1,1,0,1
-1.15625296,1951,1,1,0,1
-1.15429983,1959,1,1,0,1
-1.1523467,1966,1,1,0,1
-1.15039357,1972,1,1,0,1
-1.14844044,1978,1,1,0,1
-1.14648731,1981,1,1,0,1
-1.14453418,1981,1,1,0,1
-1.14258105,1981,1,1,0,1
-1.14062792,1981,1,1,0,1
-1.13867479,1983,1,1,0,1
-1.13672166,1985,1,1,0,1
-1.13476853,1987,1,1,0,1
-1.1328154,1987,1,1,0,1
-1.13086227,1987,1,1,0,1
-1.12890914,1987,1,1,0,1
-1.12695601,1987,1,1,0,1
-1.12500288,1990,1,1,0,1
-1.12304975,1995,1,1,0,1
-1.12109662,1998,1,1,0,1
-1.11914349,1999,1,1,0,1
-1.11719036,1999,1,1,0,1
-1.11523723,1998,1,1,0,1
-1.1132841,1995,1,1,0,1
-1.11133097,1992,0,0,0,0
-1.10937784,1792,0,1,0,0
-1.10742471,0,0,0,0,0
-1.10547158,1994,1,1,0,1
-1.10351845,1999,1,1,0,1
-1.10156532,2003,1,1,0,1
-1.09961219,2003,1,1,0,1
-1.09765906,2002,1,1,0,1
-1.09570593,2001,1,1,0,1
-1.0937528,1999,1,1,0,1
-1.09179967,1997,1,1,0,1
-1.08984654,1997,1,1,0,1
-1.08789341,1999,1,1,0,1
-1.08594028,1997,1,1,0,1
-1.08398715,1995,1,1,0,1
-1.08203402,1994,1,1,0,1
-1.08008089,1994,1,1,0,1
-1.07812776,1997,1,1,0,1
-1.07617463,2001,1,1,0,1
-1.0742215,2006,1,1,0,1
-1.07226837,2009,1,1,0,1
-1.07031524,2009,1,1,0,1
-1.06836211,2009,1,1,0,1
-1.06640898,2007,1,1,0,1
-1.06445585,2004,1,1,0,1
-1.06250272,2004,1,1,0,1
-1.06054959,2006,1,1,0,1
-1.05859646,2010,1,1,0,1
-1.05664333,2014,1,1,0,1
-1.0546902,2020,1,1,0,1
-1.05273707,2025,1,1,0,1
-1.05078394,2028,1,1,0,1
-1.04883081,2031,1,1,0,1
-1.04687768,2036,1,1,0,1
-1.04492455,2041,1,1,0,1
-1.04297142,2045,1,1,0,1
-1.04101829,2057,1,1,0,1
-1.03906516,2068,1,1,0,1
-1.03711203,2077,1,1,0,1
-1.0351589,2085,1,1,0,1
-1.03320577,2093,1,1,0,1
-1.03125264,2101,1,1,0,1
-1.02929951,2114,1,0,0,1
-1.02734638,2112,0,0,0,0
-1.02539325,2048,0,0,0,0
-1.02344012,0,0,1,0,0
-1.02148699,2148,1,1,0,1
-1.01953386,2154,1,1,0,1
-1.01758073,2154,1,1,0,1
-1.0156276,2149,1,1,0,1
-1.01367447,2141,1,1,0,1
-1.01172134,2138,1,1,0,1
-1.00976821,2137,1,1,0,1
-1.00781508,2138,1,1,0,1
-1.00586195,2141,1,1,0,1
-1.00390882,2143,1,1,0,1
-1.00195569,2146,1,1,0,1
-1.00000256,2143,1,1,0,1
-0.99804943,2142,1,1,0,1
-0.9960963,2143,1,1,0,1
-0.9941431700000001,2151,1,1,0,1
-0.99219004,2163,1,1,0,1
-0.99023691,2182,1,1,0,1
-0.9882837800000001,2202,1,1,0,1
-0.9863306500000001,2219,1,1,0,1
-0.98437752,2233,1,1,0,1
-0.98242439,2239,1,1,0,1
-0.9804712600000001,2242,1,1,0,1
-0.97851813,2237,1,1,0,1
-0.976565,2231,1,1,0,1
-0.97461187,2226,1,1,0,1
-0.9726587400000001,2221,1,1,0,1
-0.97070561,2217,1,1,0,1
-0.96875248,2210,1,1,0,1
-0.9667993500000001,2198,1,1,0,1
-0.96484622,2183,1,1,0,1
-0.96289309,2167,1,1,0,1
-0.96093996,2157,1,1,0,1
-0.9589868300000001,2150,1,1,0,1
-0.9570337,2143,1,1,0,1
-0.95508057,2134,1,1,0,1
-0.95312744,2119,1,1,0,1
-0.9511743100000001,2091,1,1,0,1
-0.94922118,2052,1,1,0,1
-0.94726805,2005,1,1,0,1
-0.9453149200000001,1962,0,1,0,0
-0.94336179,1920,0,0,0,0
-0.94140866,0,0,1,0,0
-0.93945553,0,0,1,1,0
-0.9375024000000001,1871,1,1,0,1
-0.93554927,1858,1,1,0,1
-0.93359614,1851,1,1,0,1
-0.93164301,1853,1,1,0,1
-0.9296898800000001,1862,1,1,0,1
-0.92773675,1873,1,1,0,1
-0.92578362,1885,1,1,0,1
-0.9238304900000001,1895,1,1,0,1
-0.92187736,1903,1,1,0,1
-0.91992423,1913,1,1,0,1
-0.9179711,1924,1,1,0,1
-0.9160179700000001,1931,1,1,0,1
-0.91406484,1939,1,1,0,1
-0.91211171,1946,1,1,0,1
-0.9101585800000001,1949,1,1,0,1
-0.9082054500000001,1949,1,1,0,1
-0.90625232,1944,1,1,0,1
-0.90429919,1938,1,1,0,1
-0.9023460600000001,1930,1,1,0,1
-0.90039293,1925,1,1,0,1
-0.8984398,1922,1,1,0,1
-0.89648667,1916,1,1,0,1
-0.8945335400000001,1911,1,1,0,1
-0.89258041,1910,1,1,0,1
-0.89062728,1915,1,1,0,1
-0.8886741500000001,1929,1,1,0,1
-0.8867210200000001,1941,1,1,0,1
-0.88476789,1949,1,1,0,1
-0.88281476,1955,1,1,0,1
-0.8808616300000001,1961,1,1,0,1
-0.8789085,1969,1,1,0,1
-0.87695537,1981,1,1,0,1
-0.87500224,2006,1,1,0,1
-0.8730491100000001,2057,1,1,0,1
-0.87109598,2138,1,1,0,1
-0.86914285,2258,1,1,0,1
-0.8671897200000001,2423,1,1,0,1
-0.8652365900000001,2645,1,1,0,1
-0.86328346,2917,1,1,0,1
-0.86133033,3236,0,1,0,0
-0.8593772000000001,3456,0,1,0,0
-0.85742407,0,0,0,0,0
-0.85547094,3935,1,1,0,1
-0.85351781,4055,1,1,0,1
-0.8515646800000001,4061,1,1,0,1
-0.84961155,4061,1,1,0,1
-0.84765842,4061,1,1,0,1
-0.8457052900000001,4061,1,1,0,1
-0.84375216,4043,1,1,0,1
-0.84179903,3875,1,1,0,1
-0.8398459,3571,1,1,0,1
-0.8378927700000001,3165,1,1,0,1
-0.83593964,2665,1,1,0,1
-0.83398651,2087,1,1,0,1
-0.83203338,1465,1,1,0,1
-0.8300802500000001,857,1,1,0,1
-0.82812712,305,1,1,0,1
-0.82617399,20,1,1,0,1
-0.8242208600000001,1,1,1,0,1
-0.82226773,0,1,1,0,1
-0.8203146,0,1,1,0,1
-0.81836147,0,1,1,0,1
-0.8164083400000001,0,1,1,0,1
-0.81445521,0,1,1,0,1
-0.81250208,0,1,1,0,1
-0.81054895,0,1,1,0,1
-0.8085958200000001,0,1,1,0,1
-0.80664269,17,1,1,0,1
-0.80468956,119,1,1,0,1
-0.8027364300000001,280,1,1,0,1
-0.8007833,477,1,1,0,1
-0.79883017,694,1,1,0,1
-0.79687704,927,1,1,0,1
-0.7949239100000001,1170,1,1,0,1
-0.79297078,1414,1,1,0,1
-0.79101765,1643,1,1,0,1
-0.78906452,1846,1,1,0,1
-0.7871113900000001,2018,1,1,0,1
-0.78515826,2155,1,1,0,1
-0.78320513,2259,1,1,0,1
-0.7812520000000001,2337,1,1,0,1
-0.77929887,2387,1,1,0,1
-0.77734574,2416,0,0,0,0
-0.77539261,2048,0,0,0,0
-0.7734394800000001,0,0,1,0,0
-0.77148635,2450,1,1,0,1
-0.76953322,2452,1,1,0,1
-0.76758009,2446,1,1,0,1
-0.7656269600000001,2431,1,1,0,1
-0.76367383,2418,1,1,0,1
-0.7617207,2409,1,1,0,1
-0.7597675700000001,2395,1,1,0,1
-0.75781444,2382,1,1,0,1
-0.75586131,2371,1,1,0,1
-0.75390818,2359,1,1,0,1
-0.7519550500000001,2351,1,1,0,1
-0.75000192,2347,1,1,0,1
-0.74804879,2345,1,1,0,1
-0.74609566,2339,1,1,0,1
-0.74414253,2327,1,1,0,1
-0.7421894,2317,1,1,0,1
-0.74023627,2313,1,1,0,1
-0.7382831400000001,2311,1,1,0,1
-0.73633001,2313,1,1,0,1
-0.73437688,2316,1,1,0,1
-0.73242375,2319,1,1,0,1
-0.7304706200000001,2321,1,1,0,1
-0.72851749,2319,1,1,0,1
-0.72656436,2316,1,1,0,1
-0.7246112300000001,2313,1,1,0,1
-0.7226581,2313,1,1,0,1
-0.72070497,2317,1,1,0,1
-0.71875184,2325,1,1,0,1
-0.7167987100000001,2330,1,1,0,1
-0.71484558,2330,1,1,0,1
-0.71289245,2329,1,1,0,1
-0.71093932,2329,1,1,0,1
-0.7089861900000001,2330,1,1,0,1
-0.70703306,2333,1,1,0,1
-0.70507993,2339,1,1,0,1
-0.7031268000000001,2341,1,1,0,1
-0.70117367,2340,1,1,0,1
-0.69922054,2339,1,1,0,1
-0.69726741,2338,1,1,0,1
-0.6953142800000001,2339,0,1,0,0
-0.69336115,2304,0,1,0,0
-0.69140802,2048,0,0,0,0
-0.68945489,0,0,1,1,0
-0.6875017600000001,2347,1,1,0,1
-0.68554863,2347,1,1,0,1
-0.6835955,2343,1,1,0,1
-0.6816423700000001,2339,1,1,0,1
-0.67968924,2335,1,1,0,1
-0.67773611,2334,1,1,0,1
-0.67578298,2334,1,1,0,1
-0.6738298500000001,2337,1,1,0,1
-0.67187672,2341,1,1,0,1
-0.66992359,2347,1,1,0,1
-0.66797046,2351,1,1,0,1
-0.6660173300000001,2349,1,1,0,1
-0.6640642,2345,1,1,0,1
-0.66211107,2341,1,1,0,1
-0.6601579400000001,2342,1,1,0,1
-0.65820481,2348,1,1,0,1
-0.65625168,2356,1,1,0,1
-0.65429855,2366,1,1,0,1
-0.6523454200000001,2382,1,1,0,1
-0.65039229,2402,1,1,0,1
-0.64843916,2425,1,1,0,1
-0.64648603,2443,1,1,0,1
-0.6445329000000001,2447,1,1,0,1
-0.64257977,2443,1,1,0,1
-0.64062664,2431,1,1,0,1
-0.6386735100000001,2422,1,1,0,1
-0.63672038,2420,1,1,0,1
-0.63476725,2422,1,1,0,1
-0.63281412,2429,1,1,0,1
-0.6308609900000001,2442,1,1,0,1
-0.62890786,2457,1,1,0,1
-0.62695473,2469,1,1,0,1
-0.6250016,2482,1,1,0,1
-0.62304847,2498,1,1,0,1
-0.62109534,2514,1,1,0,1
-0.61914221,2527,1,1,0,1
-0.6171890800000001,2532,1,1,0,1
-0.61523595,2527,1,1,0,1
-0.61328282,2527,1,1,0,1
-0.61132969,2532,0,1,0,0
-0.6093765600000001,2432,0,1,0,0
-0.60742343,0,0,0,0,0
-0.6054703,2539,1,1,0,1
-0.60351717,2535,1,1,0,1
-0.60156404,2527,1,1,0,1
-0.59961091,2519,1,1,0,1
-0.59765778,2511,1,1,0,1
-0.5957046500000001,2507,1,1,0,1
-0.59375152,2503,1,1,0,1
-0.59179839,2500,1,1,0,1
-0.58984526,2501,1,1,0,1
-0.5878921300000001,2500,1,1,0,1
-0.585939,2499,1,1,0,1
-0.58398587,2494,1,1,0,1
-0.58203274,2486,1,1,0,1
-0.58007961,2473,1,1,0,1
-0.57812648,2455,1,1,0,1
-0.57617335,2436,1,1,0,1
-0.5742202200000001,2410,1,1,0,1
-0.57226709,2389,1,1,0,1
-0.57031396,2370,1,1,0,1
-0.56836083,2351,1,1,0,1
-0.5664077000000001,2335,1,1,0,1
-0.56445457,2322,1,1,0,1
-0.56250144,2313,1,1,0,1
-0.56054831,2307,1,1,0,1
-0.55859518,2301,1,1,0,1
-0.55664205,2298,1,1,0,1
-0.55468892,2286,1,1,0,1
-0.5527357900000001,2263,1,1,0,1
-0.55078266,2237,1,1,0,1
-0.54882953,2216,1,1,0,1
-0.5468764,2199,1,1,0,1
-0.5449232700000001,2185,1,1,0,1
-0.54297014,2174,1,1,0,1
-0.54101701,2167,1,1,0,1
-0.5390638800000001,2154,1,1,0,1
-0.53711075,2129,1,1,0,1
-0.53515762,2098,1,1,0,1
-0.53320449,2065,1,1,0,1
-0.5312513600000001,2029,1,1,0,1
-0.52929823,1993,1,1,0,1
-0.5273451,1936,0,1,0,0
-0.52539197,1536,0,1,0,0
-0.5234388400000001,0,0,1,0,0
-0.52148571,1842,1,1,0,1
-0.51953258,1801,1,1,0,1
-0.5175794500000001,1772,1,1,0,1
-0.51562632,1749,1,1,0,1
-0.51367319,1732,1,1,0,1
-0.51172006,1721,1,1,0,1
-0.5097669300000001,1711,1,1,0,1
-0.5078138,1702,1,1,0,1
-0.50586067,1693,1,1,0,1
-0.50390754,1689,1,1,0,1
-0.50195441,1689,1,1,0,1
-0.50000128,1691,1,1,0,1
-0.49804815,1699,1,1,0,1
-0.49609502,1707,1,1,0,1
-0.49414189,1708,1,1,0,1
-0.49218876,1709,1,1,0,1
-0.49023563,1704,1,1,0,1
-0.4882825,1695,1,1,0,1
-0.48632937,1690,1,1,0,1
-0.48437624,1687,1,1,0,1
-0.48242311,1683,1,1,0,1
-0.48046998,1673,1,1,0,1
-0.47851685,1659,1,1,0,1
-0.47656372,1653,1,1,0,1
-0.47461059,1655,1,1,0,1
-0.47265746,1668,1,1,0,1
-0.47070433,1681,1,1,0,1
-0.4687512,1686,1,1,0,1
-0.46679807,1685,1,1,0,1
-0.46484494,1682,1,1,0,1
-0.46289181,1679,1,1,0,1
-0.46093868,1684,1,1,0,1
-0.45898555,1694,1,1,0,1
-0.45703242,1709,1,1,0,1
-0.45507929,1725,1,1,0,1
-0.45312616,1741,1,1,0,1
-0.45117303,1750,1,1,0,1
-0.4492199,1757,1,1,0,1
-0.44726677,1767,1,1,0,1
-0.44531364,1778,0,0,0,0
-0.44336051,1760,0,1,0,0
-0.44140738,0,0,1,0,0
-0.43945425,0,0,1,1,0
-0.43750112,1787,1,1,0,1
-0.43554799,1788,1,1,0,1
-0.43359486,1791,1,1,0,1
-0.43164173,1794,1,1,0,1
-0.4296886,1795,1,1,0,1
-0.42773547,1798,1,1,0,1
-0.42578234,1801,1,1,0,1
-0.42382921,1806,1,1,0,1
-0.42187608,1811,1,1,0,1
-0.41992295,1818,1,1,0,1
-0.41796982,1822,1,1,0,1
-0.41601669,1822,1,1,0,1
-0.41406356,1828,1,1,0,1
-0.41211043,1831,1,1,0,1
-0.4101573,1832,1,1,0,1
-0.40820417,1833,1,1,0,1
-0.40625104,1843,1,1,0,1
-0.40429791,1855,1,1,0,1
-0.40234478,1865,1,1,0,1
-0.40039165,1869,1,1,0,1
-0.39843852,1868,1,1,0,1
-0.39648539,1860,1,1,0,1
-0.39453226,1842,1,1,0,1
-0.39257913,1828,1,1,0,1
-0.390626,1820,1,1,0,1
-0.38867287,1820,1,1,0,1
-0.38671974,1819,1,1,0,1
-0.38476661,1828,1,1,0,1
-0.38281348,1846,1,1,0,1
-0.38086035,1862,1,1,0,1
-0.37890722,1866,1,1,0,1
-0.37695409,1867,1,1,0,1
-0.37500096,1877,1,1,0,1
-0.37304783,1885,1,1,0,1
-0.3710947,1883,1,1,0,1
-0.36914157,1881,1,1,0,1
-0.36718844,1883,1,1,0,1
-0.36523531,1889,1,1,0,1
-0.36328218,1891,1,1,0,1
-0.36132905,1884,0,0,0,0
-0.35937592,1792,0,0,0,0
-0.35742279,0,0,0,0,0
-0.35546966,1870,1,1,0,1
-0.35351653,1863,1,1,0,1
-0.3515634,1859,1,1,0,1
-0.34961027,1861,1,1,0,1
-0.34765714,1867,1,1,0,1
-0.34570401,1879,1,1,0,1
-0.34375088,1895,1,1,0,1
-0.34179775,1913,1,1,0,1
-0.33984462,1927,1,1,0,1
-0.33789149,1931,1,1,0,1
-0.33593836,1927,1,1,0,1
-0.33398523,1917,1,1,0,1
-0.3320321,1907,1,1,0,1
-0.33007897,1898,1,1,0,1
-0.32812584,1897,1,1,0,1
-0.32617271,1901,1,1,0,1
-0.32421958,1906,1,1,0,1
-0.32226645,1913,1,1,0,1
-0.32031332,1927,1,1,0,1
-0.31836019,1942,1,1,0,1
-0.31640706,1949,1,1,0,1
-0.31445393,1939,1,1,0,1
-0.3125008,1928,1,1,0,1
-0.31054767,1915,1,1,0,1
-0.30859454,1903,1,1,0,1
-0.30664141,1901,1,1,0,1
-0.30468828,1899,1,1,0,1
-0.30273515,1885,1,1,0,1
-0.30078202,1871,1,1,0,1
-0.29882889,1874,1,1,0,1
-0.29687576,1892,1,1,0,1
-0.29492263,1915,1,1,0,1
-0.2929695,1945,1,1,0,1
-0.29101637,1970,1,1,0,1
-0.28906324,1993,1,1,0,1
-0.28711011,2003,1,1,0,1
-0.28515698,1999,1,1,0,1
-0.28320385,1987,1,1,0,1
-0.28125072,1967,1,1,0,1
-0.27929759,1946,1,0,0,1
-0.27734446,1920,0,1,0,0
-0.27539133,1536,0,1,0,0
-0.2734382,0,0,1,1,0
-0.27148507,1907,1,1,0,1
-0.26953194,1909,1,1,0,1
-0.26757881,1909,1,1,0,1
-0.26562568,1899,1,1,0,1
-0.26367255,1890,1,1,0,1
-0.26171942,1882,1,1,0,1
-0.25976629,1893,1,1,0,1
-0.25781316,1924,1,1,0,1
-0.25586003,1963,1,1,0,1
-0.2539069,2001,1,1,0,1
-0.25195377,2027,1,1,0,1
-0.25000064,2034,1,1,0,1
-0.24804751,2023,1,1,0,1
-0.24609438,2003,1,1,0,1
-0.24414125,1977,1,1,0,1
-0.24218812,1950,1,1,0,1
-0.24023499,1933,1,1,0,1
-0.23828186,1918,1,1,0,1
-0.23632873,1930,1,1,0,1
-0.2343756,1955,1,1,0,1
-0.23242247,1973,1,1,0,1
-0.23046934,1977,1,1,0,1
-0.22851621,1979,1,1,0,1
-0.22656308,1981,1,1,0,1
-0.22460995,1989,1,1,0,1
-0.22265682,1998,1,1,0,1
-0.22070369,2003,1,1,0,1
-0.21875056,1998,1,1,0,1
-0.21679743,1990,1,1,0,1
-0.2148443,1981,1,1,0,1
-0.21289117,1974,1,1,0,1
-0.21093804,1969,1,1,0,1
-0.20898491,1959,1,1,0,1
-0.20703178,1954,1,1,0,1
-0.20507865,1955,1,1,0,1
-0.20312552,1963,1,1,0,1
-0.20117239,1981,1,1,0,1
-0.19921926,2006,1,1,0,1
-0.19726613,2029,1,1,0,1
-0.195313,2053,1,1,0,1
-0.19335987,2048,0,0,0,0
-0.19140674,2048,0,0,0,0
-0.18945361,0,0,1,1,0
-0.18750048,2063,1,1,0,1
-0.18554735,2042,1,1,0,1
-0.18359422,2017,1,1,0,1
-0.18164109,1995,1,1,0,1
-0.17968796,1977,1,1,0,1
-0.17773483,1955,1,1,0,1
-0.1757817,1935,1,1,0,1
-0.17382857,1932,1,1,0,1
-0.17187544,1946,1,1,0,1
-0.16992231,1970,1,1,0,1
-0.16796918,1989,1,1,0,1
-0.16601605,2002,1,1,0,1
-0.16406292,2013,1,1,0,1
-0.16210979,2019,1,1,0,1
-0.16015666,2039,1,1,0,1
-0.15820353,2061,1,1,0,1
-0.1562504,2070,1,1,0,1
-0.15429727,2076,1,1,0,1
-0.15234414,2085,1,1,0,1
-0.15039101,2103,1,1,0,1
-0.14843788,2118,1,1,0,1
-0.14648475,2141,1,1,0,1
-0.14453162,2165,1,1,0,1
-0.14257849,2181,1,1,0,1
-0.14062536,2183,1,1,0,1
-0.13867223,2171,1,1,0,1
-0.1367191,2149,1,1,0,1
-0.13476597,2125,1,1,0,1
-0.13281284,2102,1,1,0,1
-0.13085971,2089,1,1,0,1
-0.12890658,2087,1,1,0,1
-0.12695345,2090,1,1,0,1
-0.12500032,2089,1,1,0,1
-0.12304719,2088,1,1,0,1
-0.12109406,2091,1,1,0,1
-0.11914093,2101,1,1,0,1
-0.1171878,2109,1,1,0,1
-0.11523467,2110,1,1,0,1
-0.11328154,2121,1,1,0,1
-0.11132841,2132,0,0,0,0
-0.10937528,2048,0,1,0,0
-0.10742215,0,0,0,0,0
-0.10546902,2165,1,1,0,1
-0.10351589,2170,1,1,0,1
-0.10156276,2181,1,1,0,1
-0.09960963,2193,1,1,0,1
-0.09765650000000001,2205,1,1,0,1
-0.09570337000000001,2211,1,1,0,1
-0.09375024,2218,1,1,0,1
-0.09179711,2218,1,1,0,1
-0.08984398,2217,1,1,0,1
-0.08789085000000001,2222,1,1,0,1
-0.08593772000000001,2219,1,1,0,1
-0.08398459,2196,1,1,0,1
-0.08203146,2167,1,1,0,1
-0.08007833,2138,1,1,0,1
-0.07812520000000001,2105,1,1,0,1
-0.07617207000000001,2082,1,1,0,1
-0.07421894,2053,1,1,0,1
-0.07226581,2029,1,1,0,1
-0.07031268,2020,1,1,0,1
-0.06835955000000001,2019,1,1,0,1
-0.06640642000000001,2013,1,1,0,1
-0.06445329,2002,1,1,0,1
-0.06250016,1988,1,1,0,1
-0.06054703,1975,1,1,0,1
-0.0585939,1973,1,1,0,1
-0.05664077,1974,1,1,0,1
-0.05468764,1966,1,1,0,1
-0.05273451,1953,1,1,0,1
-0.05078138,1943,1,1,0,1
-0.04882825,1942,1,1,0,1
-0.04687512,1934,1,1,0,1
-0.04492199,1929,1,1,0,1
-0.04296886,1930,1,1,0,1
-0.04101573,1934,1,1,0,1
-0.0390626,1943,1,1,0,1
-0.03710947,1955,1,1,0,1
-0.03515634,1962,1,1,0,1
-0.03320321,1963,1,1,0,1
-0.03125008,1955,1,1,0,1
-0.02929695,1958,1,0,0,1
-0.02734382,1968,0,0,0,0
-0.02539069,1536,0,1,0,0
-0.02343756,0,0,1,1,0
-0.02148443,1995,1,1,0,1
-0.0195313,1993,1,1,0,1
-0.01757817,1994,1,1,0,1
-0.01562504,1999,1,1,0,1
-0.01367191,2006,1,1,0,1
-0.01171878,2018,1,1,0,1
-0.009765650000000001,2031,1,1,0,1
-0.00781252,2041,1,1,0,1
-0.00585939,2042,1,1,0,1
-0.00390626,2042,1,1,0,1
-0.00195313,2035,1,1,0,1
0,2033,1,1,0,1
0.00195313,2035,1,1,0,1
0.00390626,2045,1,1,0,1
0.00585939,2061,1,1,0,1
0.00781252,2086,1,1,0,1
0.009765650000000001,2130,1,1,0,1
0.01171878,2195,1,1,0,1
0.01367191,2275,1,1,0,1
0.01562504,2385,1,1,0,1
0.01757817,2525,1,1,0,1
0.0195313,2698,1,1,0,1
0.02148443,2909,1,1,0,1
0.02343756,3157,1,1,0,1
0.02539069,3421,1,1,0,1
0.02734382,3683,1,1,0,1
0.02929695,3900,1,1,0,1
0.03125008,4018,1,1,0,1
0.03320321,4003,1,1,0,1
0.03515634,3878,1,1,0,1
0.03710947,3657,1,1,0,1
0.0390626,3355,1,1,0,1
0.04101573,2995,1,1,0,1
0.04296886,2594,1,1,0,1
0.04492199,2137,1,1,0,1
0.04687512,1623,1,1,0,1
0.04882825,1091,1,1,0,1
0.05078138,583,1,1,0,1
0.05273451,140,1,1,0,1
0.05468764,7,1,1,0,1
0.05664077,0,0,0,0,0
0.0585939,0,0,0,0,0
0.06054703,0,0,1,1,0
0.06250016,0,1,1,0,1
0.06445329,0,1,1,0,1
0.06640642000000001,0,1,1,0,1
0.06835955000000001,0,1,1,0,1
0.07031268,0,1,1,0,1
0.07226581,37,1,1,0,1
0.07421894,134,1,1,0,1
0.07617207000000001,266,1,1,0,1
0.07812520000000001,419,1,1,0,1
0.08007833,585,1,1,0,1
0.08203146,757,1,1,0,1
0.08398459,940,1,1,0,1
0.08593772000000001,1126,1,1,0,1
0.08789085000000001,1306,1,1,0,1
0.08984398,1470,1,1,0,1
0.09179711,1626,1,1,0,1
0.09375024,1775,1,1,0,1
0.09570337000000001,1919,1,1,0,1
0.09765650000000001,2060,1,1,0,1
0.09960963,2185,1,1,0,1
0.10156276,2281,1,1,0,1
0.10351589,2358,1,1,0,1
0.10546902,2426,1,1,0,1
0.10742215,2478,1,1,0,1
0.10937528,2510,1,1,0,1
0.11132841,2517,1,1,0,1
0.11328154,2511,1,1,0,1
0.11523467,2506,1,1,0,1
0.1171878,2493,1,1,0,1
0.11914093,2474,1,1,0,1
0.12109406,2461,1,1,0,1
0.12304719,2453,1,1,0,1
0.12500032,2445,1,1,0,1
0.12695345,2435,1,1,0,1
0.12890658,2422,1,1,0,1
0.13085971,2417,1,1,0,1
0.13281284,2419,1,1,0,1
0.13476597,2419,1,1,0,1
0.1367191,2423,1,1,0,1
0.13867223,2430,0,1,0,0
0.14062536,2432,0,0,0,0
0.14257849,0,0,1,0,0
0.14453162,2439,1,1,0,1
0.14648475,2446,1,1,0,1
0.14843788,2453,1,1,0,1
0.15039101,2447,1,1,0,1
0.15234414,2437,1,1,0,1
0.15429727,2425,1,1,0,1
0.1562504,2412,1,1,0,1
0.15820353,2391,1,1,0,1
0.16015666,2375,1,1,0,1
0.16210979,2365,1,1,0,1
0.16406292,2361,1,1,0,1
0.16601605,2354,1,1,0,1
0.16796918,2341,1,1,0,1
0.16992231,2331,1,1,0,1
0.17187544,2326,1,1,0,1
0.17382857,2319,1,1,0,1
0.1757817,2317,1,1,0,1
0.17773483,2319,1,1,0,1
0.17968796,2322,1,1,0,1
0.18164109,2324,1,1,0,1
0.18359422,2325,1,1,0,1
0.18554735,2328,1,1,0,1
0.18750048,2338,1,1,0,1
0.18945361,2346,1,1,0,1
0.19140674,2342,1,1,0,1
0.19335987,2337,1,1,0,1
0.195313,2327,1,1,0,1
0.19726613,2321,1,1,0,1
0.19921926,2325,1,1,0,1
0.20117239,2331,1,1,0,1
0.20312552,2340,1,1,0,1
0.20507865,2347,1,1,0,1
0.20703178,2351,1,1,0,1
0.20898491,2362,1,1,0,1
0.21093804,2370,1,1,0,1
0.21289117,2367,1,1,0,1
0.2148443,2363,1,1,0,1
0.21679743,2349,1,1,0,1
0.21875056,2333,1,1,0,1
0.22070369,2326,1,0,0,1
0.22265682,2320,0,0,0,0
0.22460995,2304,0,1,0,0
0.22656308,0,0,1,1,0
0.22851621,2359,1,1,0,1
0.23046934,2375,1,1,0,1
0.23242247,2379,1,1,0,1
0.2343756,2386,1,1,0,1
0.23632873,2395,1,1,0,1
0.23828186,2397,1,1,0,1
0.24023499,2395,1,1,0,1
0.24218812,2396,1,1,0,1
0.24414125,2402,1,1,0,1
0.24609438,2402,1,1,0,1
0.24804751,2391,1,1,0,1
0.25000064,2387,1,1,0,1
0.25195377,2383,1,1,0,1
0.2539069,2385,1,1,0,1
0.25586003,2396,1,1,0,1
0.25781316,2419,1,1,0,1
0.25976629,2439,1,1,0,1
0.26171942,2450,1,1,0,1
0.26367255,2455,1,1,0,1
0.26562568,2451,1,1,0,1
0.26757881,2452,1,1,0,1
0.26953194,2453,1,1,0,1
0.27148507,2451,1,1,0,1
0.2734382,2441,1,1,0,1
0.27539133,2421,1,1,0,1
0.27734446,2402,1,1,0,1
0.27929759,2397,1,1,0,1
0.28125072,2406,1,1,0,1
0.28320385,2419,1,1,0,1
0.28515698,2426,1,1,0,1
0.28711011,2428,1,1,0,1
0.28906324,2435,1,1,0,1
0.29101637,2429,1,1,0,1
0.2929695,2421,1,1,0,1
0.29492263,2410,1,1,0,1
0.29687576,2413,1,1,0,1
0.29882889,2423,1,1,0,1
0.30078202,2435,1,1,0,1
0.30273515,2439,1,1,0,1
0.30468828,2434,1,0,0,1
0.30664141,2400,0,1,0,0
0.30859454,2048,0,0,0,0
0.31054767,0,0,1,1,0
0.3125008,2397,1,1,0,1
0.31445393,2387,1,1,0,1
0.31640706,2376,1,1,0,1
0.31836019,2357,1,1,0,1
0.32031332,2334,1,1,0,1
0.32226645,2325,1,1,0,1
0.32421958,2325,1,1,0,1
0.32617271,2323,1,1,0,1
0.32812584,2310,1,1,0,1
0.33007897,2293,1,1,0,1
0.3320321,2268,1,1,0,1
0.33398523,2233,1,1,0,1
0.33593836,2193,1,1,0,1
0.33789149,2162,1,1,0,1
0.33984462,2135,1,1,0,1
0.34179775,2106,1,1,0,1
0.34375088,2070,1,1,0,1
0.34570401,2023,1,1,0,1
0.34765714,1978,1,1,0,1
0.34961027,1919,1,1,0,1
0.3515634,1873,1,1,0,1
0.35351653,1853,1,1,0,1
0.35546966,1846,1,1,0,1
0.35742279,1829,1,1,0,1
0.35937592,1813,1,1,0,1
0.36132905,1807,1,1,0,1
0.36328218,1803,1,1,0,1
0.36523531,1787,1,1,0,1
0.36718844,1757,1,1,0,1
0.36914157,1718,1,1,0,1
0.3710947,1677,1,1,0,1
0.37304783,1647,1,1,0,1
0.37500096,1628,1,1,0,1
0.37695409,1614,1,1,0,1
0.37890722,1607,1,1,0,1
0.38086035,1599,1,1,0,1
0.38281348,1583,1,1,0,1
0.38476661,1561,1,1,0,1
0.38671974,1548,1,1,0,1
0.38867287,1544,0,0,0,0
0.390626,1536,0,0,0,0
0.39257913,0,0,0,0,0
0.39453226,0,0,1,1,0
0.39648539,1546,1,1,0,1
0.39843852,1559,1,1,0,1
0.40039165,1561,1,1,0,1
0.40234478,1553,1,1,0,1
0.40429791,1553,1,1,0,1
0.40625104,1549,1,1,0,1
0.40820417,1551,1,1,0,1
0.4101573,1562,1,1,0,1
0.41211043,1579,1,1,0,1
0.41406356,1589,1,1,0,1
0.41601669,1597,1,1,0,1
0.41796982,1602,1,1,0,1
0.41992295,1610,1,1,0,1
0.42187608,1622,1,1,0,1
0.42382921,1633,1,1,0,1
0.42578234,1642,1,1,0,1
0.42773547,1644,1,1,0,1
0.4296886,1643,1,1,0,1
0.43164173,1634,1,1,0,1
0.43359486,1626,1,1,0,1
0.43554799,1626,1,1,0,1
0.43750112,1628,1,1,0,1
0.43945425,1629,1,1,0,1
0.44140738,1635,1,1,0,1
0.44336051,1643,1,1,0,1
0.44531364,1646,1,1,0,1
0.44726677,1659,1,1,0,1
0.4492199,1679,1,1,0,1
0.45117303,1693,1,1,0,1
0.45312616,1701,1,1,0,1
0.45507929,1699,1,1,0,1
0.45703242,1693,1,1,0,1
0.45898555,1683,1,1,0,1
0.46093868,1678,1,1,0,1
0.46289181,1689,1,1,0,1
0.46484494,1706,1,1,0,1
0.46679807,1719,1,1,0,1
0.4687512,1730,1,1,0,1
0.47070433,1732,1,0,0,1
0.47265746,1720,0,0,0,0
0.47461059,1536,0,0,0,0
0.47656372,0,0,1,1,0
0.47851685,1729,1,1,0,1
0.48046998,1743,1,1,0,1
0.48242311,1755,1,1,0,1
0.48437624,1759,1,1,0,1
0.48632937,1759,1,1,0,1
0.4882825,1759,1,1,0,1
0.49023563,1753,1,1,0,1
0.49218876,1741,1,1,0,1
0.49414189,1746,1,1,0,1
0.49609502,1759,1,1,0,1
0.49804815,1767,1,1,0,1
0.50000128,1771,1,1,0,1
0.50195441,1769,1,1,0,1
0.50390754,1771,1,1,0,1
0.50586067,1778,1,1,0,1
0.5078138,1781,1,1,0,1
0.5097669300000001,1787,1,1,0,1
0.51172006,1795,1,1,0,1
0.51367319,1798,1,1,0,1
0.51562632,1798,1,1,0,1
0.5175794500000001,1802,1,1,0,1
0.51953258,1815,1,1,0,1
0.52148571,1825,1,1,0,1
0.5234388400000001,1818,1,1,0,1
0.52539197,1803,1,1,0,1
0.5273451,1786,1,1,0,1
0.52929823,1786,1,1,0,1
0.5312513600000001,1797,1,1,0,1
0.53320449,1807,1,1,0,1
0.53515762,1813,1,1,0,1
0.53711075,1810,1,1,0,1
0.5390638800000001,1805,1,1,0,1
0.54101701,1803,1,1,0,1
0.54297014,1805,1,1,0,1
0.5449232700000001,1803,1,1,0,1
0.5468764,1797,1,1,0,1
0.54882953,1798,1,1,0,1
0.55078266,1799,1,1,0,1
0.5527357900000001,1803,1,1,0,1
0.55468892,1810,1,0,0,1
0.55664205,1792,0,1,0,0
0.55859518,1024,0,1,0,0
0.56054831,0,0,1,0,0
0.56250144,1779,1,1,0,1
0.56445457,1755,1,1,0,1
0.5664077000000001,1747,1,1,0,1
0.56836083,1750,1,1,0,1
0.57031396,1756,1,1,0,1
0.57226709,1763,1,1,0,1
0.5742202200000001,1779,1,1,0,1
0.57617335,1803,1,1,0,1
0.57812648,1818,1,1,0,1
0.58007961,1828,1,1,0,1
0.58203274,1841,1,1,0,1
0.58398587,1860,1,1,0,1
0.585939,1871,1,1,0,1
0.5878921300000001,1876,1,1,0,1
0.58984526,1883,1,1,0,1
0.59179839,1883,1,1,0,1
0.59375152,1878,1,1,0,1
0.5957046500000001,1866,1,1,0,1
0.59765778,1853,1,1,0,1
0.59961091,1847,1,1,0,1
0.60156404,1839,1,1,0,1
0.60351717,1835,1,1,0,1
0.6054703,1837,1,1,0,1
0.60742343,1844,1,1,0,1
0.6093765600000001,1858,1,1,0,1
0.61132969,1869,1,1,0,1
0.61328282,1878,1,1,0,1
0.61523595,1887,1,1,0,1
0.6171890800000001,1890,1,1,0,1
0.61914221,1891,1,1,0,1
0.62109534,1903,1,1,0,1
0.62304847,1919,1,1,0,1
0.6250016,1939,1,1,0,1
0.62695473,1953,1,1,0,1
0.62890786,1965,1,1,0,1
0.6308609900000001,1975,1,1,0,1
0.63281412,1982,1,1,0,1
0.63476725,1987,1,1,0,1
0.63672038,1982,1,1,0,1
0.6386735100000001,1974,0,1,0,0
0.64062664,1920,0,0,0,0
0.64257977,0,0,0,0,0
0.6445329000000001,0,0,1,1,0
0.64648603,1947,1,1,0,1
0.64843916,1946,1,1,0,1
0.65039229,1951,1,1,0,1
0.6523454200000001,1951,1,1,0,1
0.65429855,1949,1,1,0,1
0.65625168,1949,1,1,0,1
0.65820481,1955,1,1,0,1
0.6601579400000001,1967,1,1,0,1
0.66211107,1987,1,1,0,1
0.6640642,2005,1,1,0,1
0.6660173300000001,2023,1,1,0,1
0.66797046,2039,1,1,0,1
0.66992359,2058,1,1,0,1
0.67187672,2071,1,1,0,1
0.6738298500000001,2074,1,1,0,1
0.67578298,2074,1,1,0,1
0.67773611,2071,1,1,0,1
0.67968924,2070,1,1,0,1
0.6816423700000001,2067,1,1,0,1
0.6835955,2061,1,1,0,1
0.68554863,2052,1,1,0,1
0.6875017600000001,2036,1,1,0,1
0.68945489,2023,1,1,0,1
0.69140802,2011,1,1,0,1
0.69336115,1997,1,1,0,1
0.6953142800000001,1983,1,1,0,1
0.69726741,1973,1,1,0,1
0.69922054,1957,1,1,0,1
0.70117367,1939,1,1,0,1
0.7031268000000001,1913,1,1,0,1
0.70507993,1882,1,1,0,1
0.70703306,1858,1,1,0,1
0.7089861900000001,1841,1,1,0,1
0.71093932,1828,1,1,0,1
0.71289245,1815,1,1,0,1
0.71484558,1806,1,1,0,1
0.7167987100000001,1791,1,1,0,1
0.71875184,1781,1,1,0,1
0.72070497,1766,1,0,0,1
0.7226581,1752,0,0,0,0
0.7246112300000001,1536,0,1,0,0
0.72656436,0,0,1,1,0
0.72851749,1745,1,1,0,1
0.7304706200000001,1746,1,1,0,1
0.73242375,1751,1,1,0,1
0.73437688,1755,1,1,0,1
0.73633001,1765,1,1,0,1
0.7382831400000001,1780,1,1,0,1
0.74023627,1800,1,1,0,1
0.7421894,1820,1,1,0,1
0.74414253,1837,1,1,0,1
0.74609566,1847,1,1,0,1
0.74804879,1849,1,1,0,1
0.75000192,1843,1,1,0,1
0.7519550500000001,1843,1,1,0,1
0.75390818,1850,1,1,0,1
0.75586131,1860,1,1,0,1
0.75781444,1861,1,1,0,1
0.7597675700000001,1858,1,1,0,1
0.7617207,1858,1,1,0,1
0.76367383,1866,1,1,0,1
0.7656269600000001,1873,1,1,0,1
0.76758009,1877,1,1,0,1
0.76953322,1879,1,1,0,1
0.77148635,1878,1,1,0,1
0.7734394800000001,1879,1,1,0,1
0.77539261,1889,1,1,0,1
0.77734574,1901,1,1,0,1
0.77929887,1924,1,1,0,1
0.7812520000000001,1948,1,1,0,1
0.78320513,1975,1,1,0,1
0.78515826,2012,1,1,0,1
0.7871113900000001,2059,1,1,0,1
0.78906452,2122,1,1,0,1
0.79101765,2205,1,1,0,1
0.79297078,2313,1,1,0,1
0.7949239100000001,2445,1,1,0,1
0.79687704,2599,1,1,0,1
0.79883017,2783,1,1,0,1
0.8007833,2994,1,1,0,1
0.8027364300000001,3223,1,1,0,1
0.80468956,3455,1,1,0,1
0.80664269,3648,0,0,0,0
0.8085958200000001,3072,0,1,0,0
0.81054895,0,0,1,0,0
0.81250208,3773,1,1,0,1
0.81445521,3663,1,1,0,1
0.8164083400000001,3467,1,1,0,1
0.81836147,3204,1,1,0,1
0.8203146,2875,1,1,0,1
0.82226773,2494,1,1,0,1
0.8242208600000001,2065,1,1,0,1
0.82617399,1591,1,1,0,1
0.82812712,1117,1,1,0,1
0.8300802500000001,667,1,1,0,1
0.83203338,266,1,1,0,1
0.83398651,22,1,1,0,1
0.83593964,0,1,1,0,1
0.8378927700000001,0,1,1,0,1
0.8398459,0,1,1,0,1
0.84179903,0,1,1,0,1
0.84375216,0,1,1,0,1
0.8457052900000001,0,1,1,0,1
0.84765842,0,1,1,0,1
0.84961155,5,1,1,0,1
0.8515646800000001,53,1,1,0,1
0.85351781,134,1,1,0,1
0.85547094,245,1,1,0,1
0.85742407,386,1,1,0,1
0.8593772000000001,548,1,1,0,1
0.86133033,719,1,1,0,1
0.86328346,895,1,1,0,1
0.8652365900000001,1072,1,1,0,1
0.8671897200000001,1247,1,1,0,1
0.86914285,1421,1,1,0,1
0.87109598,1586,1,1,0,1
0.8730491100000001,1746,1,1,0,1
0.87500224,1898,1,1,0,1
0.87695537,2035,1,1,0,1
0.8789085,2154,1,1,0,1
0.8808616300000001,2249,1,1,0,1
0.88281476,2324,1,1,0,1
0.88476789,2382,1,1,0,1
0.8867210200000001,2425,1,1,0,1
0.8886741500000001,2456,0,1,0,0
0.89062728,2432,0,0,0,0
0.89258041,2048,0,1,0,0
0.8945335400000001,0,0,1,1,0
0.89648667,2490,1,1,0,1
0.8984398,2487,1,1,0,1
0.90039293,2485,1,1,0,1
0.9023460600000001,2478,1,1,0,1
0.90429919,2468,1,1,0,1
0.90625232,2461,1,1,0,1
0.9082054500000001,2454,1,1,0,1
0.9101585800000001,2447,1,1,0,1
0.91211171,2442,1,1,0,1
0.91406484,2434,1,1,0,1
0.9160179700000001,2422,1,1,0,1
0.9179711,2410,1,1,0,1
0.91992423,2395,1,1,0,1
0.92187736,2383,1,1,0,1
0.9238304900000001,2373,1,1,0,1
0.92578362,2363,1,1,0,1
0.92773675,2359,1,1,0,1
0.9296898800000001,2355,1,1,0,1
0.93164301,2349,1,1,0,1
0.93359614,2339,1,1,0,1
0.93554927,2331,1,1,0,1
0.9375024000000001,2323,1,1,0,1
0.93945553,2321,1,1,0,1
0.94140866,2315,1,1,0,1
0.94336179,2312,1,1,0,1
0.9453149200000001,2309,1,1,0,1
0.94726805,2306,1,1,0,1
0.94922118,2297,1,1,0,1
0.9511743100000001,2291,1,1,0,1
0.95312744,2290,1,1,0,1
0.95508057,2293,1,1,0,1
0.9570337,2301,1,1,0,1
0.9589868300000001,2309,1,1,0,1
0.96093996,2314,1,1,0,1
0.96289309,2315,1,1,0,1
0.96484622,2315,1,1,0,1
0.9667993500000001,2309,1,1,0,1
0.96875248,2302,1,1,0,1
0.97070561,2297,1,1,0,1
0.9726587400000001,2288,0,1,0,0
0.97461187,2048,0,1,0,0
0.976565,0,0,0,0,0
0.97851813,2290,1,1,0,1
0.9804712600000001,2287,1,1,0,1
0.98242439,2286,1,1,0,1
0.98437752,2287,1,1,0,1
0.9863306500000001,2291,1,1,0,1
0.9882837800000001,2294,1,1,0,1
0.99023691,2297,1,1,0,1
0.99219004,2301,1,1,0,1
0.9941431700000001,2311,1,1,0,1
0.9960963,2321,1,1,0,1
0.99804943,2325,1,1,0,1
1.00000256,2326,1,1,0,1
1.00195569,2329,1,1,0,1
1.00390882,2333,1,1,0,1
1.00586195,2337,1,1,0,1
1.00781508,2342,1,1,0,1
1.00976821,2350,1,1,0,1
1.01172134,2357,1,1,0,1
1.01367447,2363,1,1,0,1
1.0156276,2372,1,1,0,1
1.01758073,2385,1,1,0,1
1.01953386,2396,1,1,0,1
1.02148699,2407,1,1,0,1
1.02344012,2418,1,1,0,1
1.02539325,2431,1,1,0,1
1.02734638,2450,1,1,0,1
1.02929951,2468,1,1,0,1
1.03125264,2483,1,1,0,1
1.03320577,2494,1,1,0,1
1.0351589,2499,1,1,0,1
1.03711203,2506,1,1,0,1
1.03906516,2511,1,1,0,1
1.04101829,2517,1,1,0,1
1.04297142,2525,1,1,0,1
1.04492455,2531,1,1,0,1
1.04687768,2537,1,1,0,1
1.04883081,2547,1,1,0,1
1.05078394,2555,1,1,0,1
1.05273707,2559,1,1,0,1
1.0546902,2564,1,0,0,1
1.05664333,2560,0,0,0,0
1.05859646,2560,0,1,0,0
1.06054959,0,0,1,0,0
1.06250272,2579,1,1,0,1
1.06445585,2581,1,1,0,1
1.06640898,2583,1,1,0,1
1.06836211,2581,1,1,0,1
1.07031524,2581,1,1,0,1
1.07226837,2577,1,1,0,1
1.0742215,2571,1,1,0,1
1.07617463,2565,1,1,0,1
1.07812776,2551,1,1,0,1
1.08008089,2542,1,1,0,1
1.08203402,2527,1,1,0,1
1.08398715,2514,1,1,0,1
1.08594028,2501,1,1,0,1
1.08789341,2485,1,1,0,1
1.08984654,2468,1,1,0,1
1.09179967,2452,1,1,0,1
1.0937528,2435,1,1,0,1
1.09570593,2414,1,1,0,1
1.09765906,2389,1,1,0,1
1.09961219,2355,1,1,0,1
1.10156532,2318,1,1,0,1
1.10351845,2277,1,1,0,1
1.10547158,2234,1,1,0,1
1.10742471,2190,1,1,0,1
1.10937784,2149,1,1,0,1
1.11133097,2109,1,1,0,1
1.1132841,2067,1,1,0,1
1.11523723,2026,1,1,0,1
1.11719036,1991,1,1,0,1
1.11914349,1959,1,1,0,1
1.12109662,1926,1,1,0,1
1.12304975,1890,1,1,0,1
1.12500288,1858,1,1,0,1
1.12695601,1829,1,1,0,1
1.12890914,1807,1,1,0,1
1.13086227,1786,1,1,0,1
1.1328154,1759,1,1,0,1
1.13476853,1725,1,1,0,1
1.13672166,1688,1,1,0,1
1.13867479,1650,0,1,0,0
1.14062792,1600,0,0,0,0
1.14258105,0,0,0,0,0
1.14453418,0,0,1,1,0
1.14648731,1578,1,1,0,1
1.14844044,1564,1,1,0,1
1.15039357,1553,1,1,0,1
1.1523467,1542,1,1,0,1
1.15429983,1534,1,1,0,1
1.15625296,1534,1,1,0,1
1.15820609,1543,1,1,0,1
1.16015922,1551,1,1,0,1
1.16211235,1561,1,1,0,1
1.16406548,1569,1,1,0,1
1.16601861,1571,1,1,0,1
1.16797174,1571,1,1,0,1
1.16992487,1570,1,1,0,1
1.171878,1566,1,1,0,1
1.17383113,1565,1,1,0,1
1.17578426,1570,1,1,0,1
1.17773739,1574,1,1,0,1
1.17969052,1580,1,1,0,1
1.18164365,1582,1,1,0,1
1.18359678,1583,1,1,0,1
1.18554991,1582,1,1,0,1
1.18750304,1580,1,1,0,1
1.18945617,1581,1,1,0,1
1.1914093,1585,1,1,0,1
1.19336243,1595,1,1,0,1
1.19531556,1612,1,1,0,1
1.19726869,1625,1,1,0,1
1.19922182,1637,1,1,0,1
1.20117495,1646,1,1,0,1
1.20312808,1655,1,1,0,1
1.20508121,1663,1,1,0,1
1.20703434,1676,1,1,0,1
1.20898747,1689,1,1,0,1
1.2109406,1701,1,1,0,1
1.21289373,1713,1,1,0,1
1.21484686,1721,1,1,0,1
1.21679999,1724,1,1,0,1
1.21875312,1727,1,1,0,1
1.22070625,1734,1,1,0,1
1.22265938,1744,0,0,0,0
1.22461251,1536,0,1,0,0
1.22656564,0,0,0,0,0
1.22851877,1773,1,1,0,1
1.2304719,1785,1,1,0,1
1.23242503,1795,1,1,0,1
1.23437816,1805,1,1,0,1
1.23633129,1814,1,1,0,1
1.23828442,1818,1,1,0,1
1.24023755,1818,1,1,0,1
1.24219068,1818,1,1,0,1
1.24414381,1821,1,1,0,1
1.24609694,1826,1,1,0,1
1.24805007,1829,1,1,0,1
1.2500032,1832,1,1,0,1
1.25195633,1837,1,1,0,1
1.25390946,1844,1,1,0,1
1.25586259,1850,1,1,0,1
1.25781572,1850,1,1,0,1
1.25976885,1853,1,1,0,1
1.26172198,1861,1,1,0,1
1.26367511,1868,1,1,0,1
1.26562824,1874,1,1,0,1
1.26758137,1879,1,1,0,1
1.2695345,1883,1,1,0,1
1.27148763,1884,1,1,0,1
1.27344076,1883,1,1,0,1
1.27539389,1887,1,1,0,1
1.27734702,1894,1,1,0,1
1.27930015,1899,1,1,0,1
1.28125328,1899,1,1,0,1
1.28320641,1900,1,1,0,1
1.28515954,1903,1,1,0,1
1.28711267,1907,1,1,0,1
1.2890658,1910,1,1,0,1
1.29101893,1913,1,1,0,1
1.29297206,1918,1,1,0,1
1.29492519,1923,1,1,0,1
1.29687832,1926,1,1,0,1
1.29883145,1929,1,1,0,1
1.30078458,1930,1,1,0,1
1.30273771,1928,1,1,0,1
1.30469084,1925,1,1,0,1
1.30664397,1920,0,0,0,0
1.3085971,1536,0,1,0,0
1.31055023,0,0,1,0,0
1.31250336,1917,1,1,0,1
1.31445649,1911,1,1,0,1
1.31640962,1913,1,1,0,1
1.31836275,1917,1,1,0,1
1.32031588,1923,1,1,0,1
1.32226901,1931,1,1,0,1
1.32422214,1941,1,1,0,1
1.32617527,1953,1,1,0,1
1.3281284,1963,1,1,0,1
1.33008153,1970,1,1,0,1
1.33203466,1977,1,1,0,1
1.33398779,1981,1,1,0,1
1.33594092,1983,1,1,0,1
1.33789405,1986,1,1,0,1
1.33984718,1987,1,1,0,1
1.34180031,1993,1,1,0,1
1.34375344,1999,1,1,0,1
1.34570657,2005,1,1,0,1
1.3476597,2010,1,1,0,1
1.34961283,2011,1,1,0,1
1.35156596,2010,1,1,0,1
1.35351909,2007,1,1,0,1
1.35547222,2003,1,1,0,1
1.35742535,2003,1,1,0,1
1.35937848,2003,1,1,0,1
1.36133161,1999,1,1,0,1
1.36328474,1996,1,1,0,1
1.36523787,1991,1,1,0,1
1.367191,1989,1,1,0,1
1.36914413,1995,1,1,0,1
1.37109726,2006,1,1,0,1
1.37305039,2019,1,1,0,1
1.37500352,2030,1,1,0,1
1.37695665,2037,1,1,0,1
1.37890978,2041,1,1,0,1
1.38086291,2038,1,1,0,1
1.38281604,2033,1,1,0,1
1.38476917,2029,1,1,0,1
1.3867223,2029,1,1,0,1
1.38867543,2030,0,0,0,0
1.39062856,1984,0,1,0,0
1.39258169,0,0,1,0,0
1.39453482,0,0,1,1,0
1.39648795,2041,1,1,0,1
1.39844108,2045,1,1,0,1
1.40039421,2043,1,1,0,1
1.40234734,2038,1,1,0,1
1.40430047,2035,1,1,0,1
1.4062536,2033,1,1,0,1
1.40820673,2030,1,1,0,1
1.41015986,2029,1,1,0,1
1.41211299,2026,1,1,0,1
1.41406612,2023,1,1,0,1
1.41601925,2025,1,1,0,1
1.41797238,2030,1,1,0,1
1.41992551,2037,1,1,0,1
1.42187864,2043,1,1,0,1
1.42383177,2055,1,1,0,1
1.4257849,2070,1,1,0,1
1.42773803,2083,1,1,0,1
1.42969116,2093,1,1,0,1
1.43164429,2101,1,1,0,1
1.43359742,2106,1,1,0,1
1.43555055,2109,1,1,0,1
1.43750368,2115,1,1,0,1
1.43945681,2124,1,1,0,1
1.44140994,2138,1,1,0,1
1.44336307,2153,1,1,0,1
1.4453162,2169,1,1,0,1
1.44726933,2184,1,1,0,1
1.44922246,2191,1,1,0,1
1.45117559,2193,1,1,0,1
1.45312872,2191,1,1,0,1
1.45508185,2189,1,1,0,1
1.45703498,2188,1,1,0,1
1.45898811,2189,1,1,0,1
1.46094124,2194,1,1,0,1
1.46289437,2198,1,1,0,1
1.4648475,2198,1,1,0,1
1.46680063,2197,1,1,0,1
1.46875376,2199,1,1,0,1
1.47070689,2205,1,1,0,1
1.47266002,2212,0,1,0,0
1.47461315,2176,0,1,0,0
1.47656628,0,0,0,0,0
1.47851941,2237,1,1,0,1
1.48047254,2246,1,1,0,1
1.48242567,2252,1,1,0,1
1.4843788,2255,1,1,0,1
1.48633193,2260,1,1,0,1
1.48828506,2265,1,1,0,1
1.49023819,2265,1,1,0,1
1.49219132,2263,1,1,0,1
1.49414445,2262,1,1,0,1
1.49609758,2251,1,1,0,1
1.49805071,2233,1,1,0,1
1.50000384,2218,1,1,0,1
1.50195697,2203,1,1,0,1
1.5039101,2193,1,1,0,1
1.50586323,2183,1,1,0,1
1.50781636,2171,1,1,0,1
1.50976949,2158,1,1,0,1
1.51172262,2140,1,1,0,1
1.51367575,2119,1,1,0,1
1.51562888,2097,1,1,0,1
1.51758201,2071,1,1,0,1
1.51953514,2047,1,1,0,1
1.52148827,2029,1,1,0,1
1.5234414,2019,1,1,0,1
1.52539453,2011,1,1,0,1
1.52734766,2003,1,1,0,1
1.52930079,2002,1,1,0,1
1.53125392,2003,1,1,0,1
1.53320705,2005,1,1,0,1
1.53516018,2006,1,1,0,1
1.53711331,2010,1,1,0,1
1.53906644,2013,1,1,0,1
1.54101957,2018,1,1,0,1
1.5429727,2023,1,1,0,1
1.54492583,2029,1,1,0,1
1.54687896,2031,1,1,0,1
1.54883209,2034,1,1,0,1
1.55078522,2035,1,1,0,1
1.55273835,2033,1,1,0,1
1.55469148,2033,1,1,0,1
1.55664461,2032,0,0,0,0
1.55859774,1536,0,1,0,0
1.56055087,0,0,1,0,0
1.562504,2043,1,1,0,1
1.56445713,2045,1,1,0,1
1.56641026,2047,1,1,0,1
1.56836339,2052,1,1,0,1
1.57031652,2053,1,1,0,1
1.57226965,2055,1,1,0,1
1.57422278,2061,1,1,0,1
1.57617591,2070,1,1,0,1
1.57812904,2083,1,1,0,1
1.58008217,2097,1,1,0,1
1.5820353,2107,1,1,0,1
1.58398843,2116,1,1,0,1
1.58594156,2125,1,1,0,1
1.58789469,2134,1,1,0,1
1.58984782,2147,1,1,0,1
1.59180095,2173,1,1,0,1
1.59375408,2219,1,1,0,1
1.59570721,2281,1,1,0,1
1.59766034,2357,1,1,0,1
1.59961347,2457,1,1,0,1
1.6015666,2585,1,1,0,1
1.60351973,2742,1,1,0,1
1.60547286,2929,1,1,0,1
1.60742599,3131,1,1,0,1
1.60937912,3327,1,1,0,1
1.61133225,3495,1,1,0,1
1.61328538,3591,1,1,0,1
1.61523851,3567,1,1,0,1
1.61719164,3429,1,1,0,1
1.61914477,3203,1,1,0,1
1.6210979,2914,1,1,0,1
1.62305103,2573,1,1,0,1
1.62500416,2189,1,1,0,1
1.62695729,1771,1,1,0,1
1.62891042,1333,1,1,0,1
1.63086355,898,1,1,0,1
1.63281668,504,1,1,0,1
1.63476981,174,1,1,0,1
1.63672294,11,1,1,0,1
1.63867607,0,0,0,0,0
1.6406292,0,0,0,0,0
1.64258233,0,0,0,0,0
1.64453546,0,0,1,1,0
1.64648859,0,1,1,0,1
1.64844172,0,1,1,0,1
1.65039485,22,1,1,0,1
1.65234798,98,1,1,0,1
1.65430111,215,1,1,0,1
1.65625424,368,1,1,0,1
1.65820737,540,1,1,0,1
1.6601605,726,1,1,0,1
1.66211363,923,1,1,0,1
1.66406676,1128,1,1,0,1
1.66601989,1339,1,1,0,1
1.66797302,1551,1,1,0,1
1.66992615,1755,1,1,0,1
1.67187928,1947,1,1,0,1
1.67383241,2116,1,1,0,1
1.67578554,2255,1,1,0,1
1.67773867,2372,1,1,0,1
1.6796918,2462,1,1,0,1
1.68164493,2534,1,1,0,1
1.68359806,2588,1,1,0,1
1.68555119,2621,1,1,0,1
1.68750432,2643,1,1,0,1
1.68945745,2647,1,1,0,1
1.69141058,2643,1,1,0,1
1.69336371,2635,1,1,0,1
1.69531684,2623,1,1,0,1
1.69726997,2606,1,1,0,1
1.6992231,2585,1,1,0,1
1.70117623,2566,1,1,0,1
1.70312936,2547,1,1,0,1
1.70508249,2533,1,1,0,1
1.70703562,2521,1,1,0,1
1.70898875,2508,1,1,0,1
1.71094188,2501,1,1,0,1
1.71289501,2495,1,1,0,1
1.71484814,2493,1,1,0,1
1.71680127,2493,1,1,0,1
1.7187544,2491,1,1,0,1
1.72070753,2491,1,1,0,1
1.72266066,2492,0,1,0,0
1.72461379,2432,0,1,0,0
1.72656692,0,0,0,0,0
1.72852005,2498,1,1,0,1
1.73047318,2495,1,1,0,1
1.73242631,2491,1,1,0,1
1.73437944,2483,1,1,0,1
1.73633257,2471,1,1,0,1
1.7382857,2460,1,1,0,1
1.74023883,2450,1,1,0,1
1.74219196,2438,1,1,0,1
1.74414509,2429,1,1,0,1
1.74609822,2422,1,1,0,1
1.74805135,2414,1,1,0,1
1.75000448,2406,1,1,0,1
1.75195761,2398,1,1,0,1
1.75391074,2393,1,1,0,1
1.75586387,2389,1,1,0,1
1.757817,2386,1,1,0,1
1.75977013,2383,1,1,0,1
1.76172326,2387,1,1,0,1
1.76367639,2387,1,1,0,1
1.76562952,2385,1,1,0,1
1.76758265,2381,1,1,0,1
1.76953578,2377,1,1,0,1
1.77148891,2373,1,1,0,1
1.77344204,2371,1,1,0,1
1.77539517,2367,1,1,0,1
1.7773483,2366,1,1,0,1
1.77930143,2362,1,1,0,1
1.78125456,2355,1,1,0,1
1.78320769,2341,1,1,0,1
1.78516082,2329,1,1,0,1
1.78711395,2321,1,1,0,1
1.78906708,2314,1,1,0,1
1.79102021,2310,1,1,0,1
1.79297334,2309,1,1,0,1
1.79492647,2308,1,1,0,1
1.7968796,2301,1,1,0,1
1.79883273,2295,1,1,0,1
1.80078586,2292,1,1,0,1
1.80273899,2293,1,1,0,1
1.80469212,2295,1,1,0,1
1.80664525,2288,0,1,0,0
1.80859838,2048,0,1,0,0
1.81055151,0,0,1,1,0
1.81250464,2314,1,1,0,1
1.81445777,2319,1,1,0,1
1.8164109,2325,1,1,0,1
1.81836403,2330,1,1,0,1
1.82031716,2334,1,1,0,1
1.82227029,2337,1,1,0,1
1.82422342,2335,1,1,0,1
1.82617655,2338,1,1,0,1
1.82812968,2341,1,1,0,1
1.83008281,2349,1,1,0,1
1.83203594,2358,1,1,0,1
1.83398907,2366,1,1,0,1
1.8359422,2373,1,1,0,1
1.83789533,2379,1,1,0,1
1.83984846,2385,1,1,0,1
1.84180159,2389,1,1,0,1
1.84375472,2397,1,1,0,1
1.84570785,2410,1,1,0,1
1.84766098,2417,1,1,0,1
1.84961411,2418,1,1,0,1
1.85156724,2417,1,1,0,1
1.85352037,2409,1,1,0,1
1.8554735,2405,1,1,0,1
1.85742663,2399,1,1,0,1
1.85937976,2399,1,1,0,1
1.86133289,2403,1,1,0,1
1.86328602,2405,1,1,0,1
1.86523915,2407,1,1,0,1
1.86719228,2405,1,1,0,1
1.86914541,2397,1,1,0,1
1.87109854,2389,1,1,0,1
1.87305167,2381,1,1,0,1
1.8750048,2375,1,1,0,1
1.87695793,2377,1,1,0,1
1.87891106,2378,1,1,0,1
1.88086419,2375,1,1,0,1
1.88281732,2371,1,1,0,1
1.88477045,2361,1,1,0,1
1.88672358,2351,1,1,0,1
1.88867671,2345,0,1,0,0
1.89062984,2336,0,1,0,0
1.89258297,2048,0,0,0,0
1.8945361,0,0,1,1,0
1.89648923,2323,1,1,0,1
1.89844236,2311,1,1,0,1
1.90039549,2295,1,1,0,1
1.90234862,2281,1,1,0,1
1.90430175,2262,1,1,0,1
1.90625488,2242,1,1,0,1
1.90820801,2221,1,1,0,1
1.91016114,2202,1,1,0,1
1.91211427,2185,1,1,0,1
1.9140674,2171,1,1,0,1
1.91602053,2155,1,1,0,1
1.91797366,2135,1,1,0,1
1.91992679,2113,1,1,0,1
1.92187992,2090,1,1,0,1
1.92383305,2071,1,1,0,1
1.92578618,2059,1,1,0,1
1.92773931,2041,1,1,0,1
1.92969244,2023,1,1,0,1
1.93164557,2005,1,1,0,1
1.9335987,1989,1,1,0,1
1.93555183,1973,1,1,0,1
1.93750496,1957,1,1,0,1
1.93945809,1939,1,1,0,1
1.94141122,1923,1,1,0,1
1.94336435,1909,1,1,0,1
1.94531748,1894,1,1,0,1
1.94727061,1877,1,1,0,1
1.94922374,1861,1,1,0,1
1.95117687,1845,1,1,0,1
1.95313,1831,1,1,0,1
1.95508313,1821,1,1,0,1
1.95703626,1815,1,1,0,1
1.95898939,1817,1,1,0,1
1.96094252,1819,1,1,0,1
1.96289565,1822,1,1,0,1
1.96484878,1827,1,1,0,1
1.96680191,1833,1,1,0,1
1.96875504,1841,1,1,0,1
1.97070817,1849,1,1,0,1
1.9726613,1848,0,1,0,0
1.97461443,1792,0,0,0,0
1.97656756,0,0,0,0,0
1.97852069,1859,1,1,0,1
1.98047382,1862,1,1,0,1
1.98242695,1861,1,1,0,1
1.98438008,1853,1,1,0,1
1.98633321,1843,1,1,0,1
1.98828634,1837,1,1,0,1
1.99023947,1837,1,1,0,1
1.9921926,1841,1,1,0,1
1.99414573,1849,1,1,0,1
1.99609886,1853,1,1,0,1
1.99805199,1857,1,1,0,1
2.00000512,1855,1,1,0,1
2.00195825,1853,1,1,0,1
2.00391138,1859,1,1,0,1
2.00586451,1868,1,1,0,1
2.00781764,1874,1,1,0,1
2.00977077,1877,1,1,0,1
2.0117239,1876,1,1,0,1
2.01367703,1874,1,1,0,1
2.01563016,1871,1,1,0,1
2.01758329,1873,1,1,0,1
2.01953642,1876,1,1,0,1
2.02148955,1882,1,1,0,1
2.02344268,1891,1,1,0,1
2.02539581,1902,1,1,0,1
2.02734894,1914,1,1,0,1
2.02930207,1925,1,1,0,1
2.0312552,1929,1,1,0,1
2.03320833,1930,1,1,0,1
2.03516146,1927,1,1,0,1
2.03711459,1926,1,1,0,1
2.03906772,1927,1,1,0,1
2.04102085,1929,1,1,0,1
2.04297398,1930,1,1,0,1
2.04492711,1931,1,1,0,1
2.04688024,1933,1,1,0,1
2.04883337,1933,1,1,0,1
2.0507865,1932,1,1,0,1
2.05273963,1930,1,1,0,1
2.05469276,1926,1,0,0,1
2.05664589,1912,0,1,0,0
2.05859902,1536,0,1,0,0
2.06055215,0,0,1,1,0
2.06250528,1924,1,1,0,1
2.06445841,1927,1,1,0,1
2.06641154,1929,1,1,0,1
2.06836467,1927,1,1,0,1
2.0703178,1918,1,1,0,1
2.07227093,1909,1,1,0,1
2.07422406,1903,1,1,0,1
2.07617719,1903,1,1,0,1
2.07813032,1911,1,1,0,1
2.08008345,1916,1,1,0,1
2.08203658,1918,1,1,0,1
2.08398971,1919,1,1,0,1
2.08594284,1923,1,1,0,1
2.08789597,1930,1,1,0,1
2.0898491,1937,1,1,0,1
2.09180223,1943,1,1,0,1
2.09375536,1951,1,1,0,1
2.09570849,1958,1,1,0,1
2.09766162,1962,1,1,0,1
2.09961475,1962,1,1,0,1
2.10156788,1962,1,1,0,1
2.10352101,1960,1,1,0,1
2.10547414,1957,1,1,0,1
2.10742727,1953,1,1,0,1
2.1093804,1955,1,1,0,1
2.11133353,1964,1,1,0,1
2.11328666,1975,1,1,0,1
2.11523979,1979,1,1,0,1
2.11719292,1977,1,1,0,1
2.11914605,1975,1,1,0,1
2.12109918,1974,1,1,0,1
2.12305231,1973,1,1,0,1
2.12500544,1973,1,1,0,1
2.12695857,1977,1,1,0,1
2.1289117,1978,1,1,0,1
2.13086483,1979,1,1,0,1
2.13281796,1980,1,1,0,1
2.13477109,1981,1,1,0,1
2.13672422,1982,1,1,0,1
2.13867735,1982,1,0,0,1
2.14063048,1952,0,1,0,0
2.14258361,1024,0,1,0,0
2.14453674,0,0,1,1,0
2.14648987,1982,1,1,0,1
2.148443,1979,1,1,0,1
2.15039613,1972,1,1,0,1
2.15234926,1965,1,1,0,1
2.15430239,1963,1,1,0,1
2.15625552,1966,1,1,0,1
2.15820865,1972,1,1,0,1
2.16016178,1979,1,1,0,1
2.16211491,1987,1,1,0,1
2.16406804,1991,1,1,0,1
2.16602117,1993,1,1,0,1
2.1679743,1993,1,1,0,1
2.16992743,1994,1,1,0,1
2.17188056,1997,1,1,0,1
2.17383369,1999,1,1,0,1
2.17578682,2003,1,1,0,1
2.17773995,2007,1,1,0,1
2.17969308,2011,1,1,0,1
2.18164621,2013,1,1,0,1
2.18359934,2014,1,1,0,1
2.18555247,2012,1,1,0,1
2.1875056,2011,1,1,0,1
2.18945873,2015,1,1,0,1
2.19141186,2021,1,1,0,1
2.19336499,2027,1,1,0,1
2.19531812,2033,1,1,0,1
2.19727125,2035,1,1,0,1
2.19922438,2039,1,1,0,1
2.20117751,2043,1,1,0,1
2.20313064,2047,1,1,0,1
2.20508377,2057,1,1,0,1
2.2070369,2062,1,1,0,1
2.20899003,2066,1,1,0,1
2.21094316,2068,1,1,0,1
2.21289629,2065,1,1,0,1
2.21484942,2059,1,1,0,1
2.21680255,2054,1,1,0,1
2.21875568,2046,1,1,0,1
2.22070881,2045,1,1,0,1
2.22266194,2048,0,1,0,0
2.22461507,2048,0,0,0,0
2.2265682,0,0,1,0,0
2.22852133,2062,1,1,0,1
2.23047446,2070,1,1,0,1
2.23242759,2075,1,1,0,1
2.23438072,2075,1,1,0,1
2.23633385,2070,1,1,0,1
2.23828698,2063,1,1,0,1
2.24024011,2052,1,1,0,1
2.24219324,2037,1,1,0,1
2.24414637,2028,1,1,0,1
2.2460995,2023,1,1,0,1
2.24805263,2019,1,1,0,1
2.25000576,2019,1,1,0,1
2.25195889,2021,1,1,0,1
2.25391202,2023,1,1,0,1
2.25586515,2029,1,1,0,1
2.25781828,2035,1,1,0,1
2.25977141,2043,1,1,0,1
2.26172454,2053,1,1,0,1
2.26367767,2061,1,1,0,1
2.2656308,2063,1,1,0,1
2.26758393,2061,1,1,0,1
2.26953706,2061,1,1,0,1
2.27149019,2061,1,1,0,1
2.27344332,2059,1,1,0,1
2.27539645,2061,1,1,0,1
2.27734958,2062,1,1,0,1
2.27930271,2063,1,1,0,1
2.28125584,2060,1,1,0,1
2.28320897,2058,1,1,0,1
2.2851621,2055,1,1,0,1
2.28711523,2047,1,1,0,1
2.28906836,2045,1,1,0,1
2.29102149,2041,1,1,0,1
2.29297462,2044,1,1,0,1
2.29492775,2043,1,1,0,1
2.29688088,2037,1,1,0,1
2.29883401,2031,1,1,0,1
2.30078714,2029,1,1,0,1
2.30274027,2027,1,1,0,1
2.3046934,2026,1,0,0,1
2.30664653,2024,0,1,0,0
2.30859966,1792,0,1,0,0
2.31055279,0,0,1,1,0
2.31250592,2041,1,1,0,1
2.31445905,2052,1,1,0,1
2.31641218,2060,1,1,0,1
2.31836531,2066,1,1,0,1
2.32031844,2069,1,1,0,1
2.32227157,2071,1,1,0,1
2.3242247,2070,1,1,0,1
2.32617783,2066,1,1,0,1
2.32813096,2061,1,1,0,1
2.33008409,2058,1,1,0,1
2.33203722,2059,1,1,0,1
2.33399035,2059,1,1,0,1
2.33594348,2057,1,1,0,1
2.33789661,2058,1,1,0,1
2.33984974,2060,1,1,0,1
2.34180287,2061,1,1,0,1
2.343756,2066,1,1,0,1
2.34570913,2070,1,1,0,1
2.34766226,2074,1,1,0,1
2.34961539,2079,1,1,0,1
2.35156852,2089,1,1,0,1
2.35352165,2094,1,1,0,1
2.35547478,2103,1,1,0,1
2.35742791,2115,1,1,0,1
2.35938104,2129,1,1,0,1
2.36133417,2140,1,1,0,1
2.3632873,2143,1,1,0,1
2.36524043,2139,1,1,0,1
2.36719356,2126,1,1,0,1
2.36914669,2114,1,1,0,1
2.37109982,2105,1,1,0,1
2.37305295,2103,1,1,0,1
2.37500608,2103,1,1,0,1
2.37695921,2106,1,1,0,1
2.37891234,2107,1,1,0,1
2.38086547,2103,1,1,0,1
2.3828186,2097,1,1,0,1
2.38477173,2094,1,1,0,1
2.38672486,2094,1,1,0,1
2.38867799,2098,1,0,0,1
2.39063112,2080,0,1,0,0
2.39258425,2048,0,0,0,0
2.39453738,0,0,1,1,0
2.39649051,2145,1,1,0,1
2.39844364,2162,1,1,0,1
2.40039677,2173,1,1,0,1
2.4023499,2180,1,1,0,1
2.40430303,2183,1,1,0,1
2.40625616,2178,1,1,0,1
2.40820929,2170,1,1,0,1
2.41016242,2157,1,1,0,1
2.41211555,2141,1,1,0,1
2.41406868,2125,1,1,0,1
2.41602181,2103,1,1,0,1
2.41797494,2083,1,1,0,1
2.41992807,2067,1,1,0,1
2.4218812,2055,1,1,0,1
2.42383433,2042,1,1,0,1
2.42578746,2031,1,1,0,1
2.42774059,2015,1,1,0,1
2.42969372,1999,1,1,0,1
2.43164685,1979,1,1,0,1
2.43359998,1959,1,1,0,1
2.43555311,1941,1,1,0,1
2.43750624,1925,1,1,0,1
2.43945937,1911,1,1,0,1
2.4414125,1899,1,1,0,1
2.44336563,1891,1,1,0,1
2.44531876,1890,1,1,0,1
2.44727189,1892,1,1,0,1
2.44922502,1895,1,1,0,1
2.45117815,1899,1,1,0,1
2.45313128,1910,1,1,0,1
2.45508441,1919,1,1,0,1
2.45703754,1929,1,1,0,1
2.45899067,1935,1,1,0,1
2.4609438,1938,1,1,0,1
2.46289693,1935,1,1,0,1
2.46485006,1928,1,1,0,1
2.46680319,1922,1,1,0,1
2.46875632,1919,1,1,0,1
2.47070945,1919,1,1,0,1
2.47266258,1918,0,1,0,0
2.47461571,1920,0,0,0,0
2.47656884,0,0,0,0,0
2.47852197,0,0,1,1,0
2.4804751,1922,1,1,0,1
2.48242823,1918,1,1,0,1
2.48438136,1918,1,1,0,1
2.48633449,1915,1,1,0,1
2.48828762,1918,1,1,0,1
2.49024075,1925,1,1,0,1
2.49219388,1935,1,1,0,1
2.49414701,1949,1,1,0,1
2.49610014,1969,1,1,0,1
2.49805327,1988,1,1,0,1
2.5000064,2009,1,1,0,1
2.50195953,2039,1,1,0,1
2.50391266,2084,1,1,0,1
2.50586579,2141,1,1,0,1
2.50781892,2215,1,1,0,1
2.50977205,2309,1,1,0,1
2.51172518,2423,1,1,0,1
2.51367831,2565,1,1,0,1
2.51563144,2731,1,1,0,1
2.51758457,2911,1,1,0,1
2.5195377,3095,1,1,0,1
2.52149083,3263,1,1,0,1
2.52344396,3383,1,1,0,1
2.52539709,3410,1,1,0,1
2.52735022,3314,1,1,0,1
2.52930335,3119,1,1,0,1
2.53125648,2853,1,1,0,1
2.53320961,2535,1,1,0,1
2.53516274,2185,1,1,0,1
2.53711587,1806,1,1,0,1
2.539069,1411,1,1,0,1
2.54102213,1007,1,1,0,1
2.54297526,629,1,1,0,1
2.54492839,301,1,1,0,1
2.54688152,49,1,1,0,1
2.54883465,2,1,1,0,1
2.55078778,0,1,1,0,1
2.55274091,0,1,1,0,1
2.55469404,0,1,0,0,1
2.55664717,0,0,0,0,0
2.5586003,0,0,0,0,0
2.56055343,0,0,1,1,0
2.56250656,136,1,1,0,1
2.56445969,263,1,1,0,1
2.56641282,412,1,1,0,1
2.56836595,576,1,1,0,1
2.57031908,750,1,1,0,1
2.57227221,935,1,1,0,1
2.57422534,1122,1,1,0,1
2.57617847,1310,1,1,0,1
2.5781316,1500,1,1,0,1
2.58008473,1683,1,1,0,1
2.58203786,1853,1,1,0,1
2.58399099,2007,1,1,0,1
2.58594412,2141,1,1,0,1
2.58789725,2251,1,1,0,1
2.58985038,2338,1,1,0,1
2.59180351,2402,1,1,0,1
2.59375664,2451,1,1,0,1
2.59570977,2485,1,1,0,1
2.5976629,2504,1,1,0,1
2.59961603,2509,1,1,0,1
2.60156916,2506,1,1,0,1
2.60352229,2498,1,1,0,1
2.60547542,2487,1,1,0,1
2.60742855,2475,1,1,0,1
2.60938168,2461,1,1,0,1
2.61133481,2443,1,1,0,1
2.61328794,2423,1,1,0,1
2.61524107,2406,1,1,0,1
2.6171942,2391,1,1,0,1
2.61914733,2377,1,1,0,1
2.62110046,2362,1,1,0,1
2.62305359,2351,1,1,0,1
2.62500672,2345,1,1,0,1
2.62695985,2340,1,1,0,1
2.62891298,2338,1,1,0,1
2.63086611,2333,1,1,0,1
2.63281924,2331,1,1,0,1
2.63477237,2329,1,1,0,1
2.6367255,2326,1,1,0,1
2.63867863,2323,1,1,0,1
2.64063176,2304,0,1,0,0
2.64258489,2048,0,0,0,0
2.64453802,0,0,1,1,0
2.64649115,2315,1,1,0,1
2.64844428,2314,1,1,0,1
2.65039741,2309,1,1,0,1
2.65235054,2301,1,1,0,1
2.65430367,2298,1,1,0,1
2.6562568,2294,1,1,0,1
2.65820993,2292,1,1,0,1
2.66016306,2291,1,1,0,1
2.66211619,2286,1,1,0,1
2.66406932,2279,1,1,0,1
2.66602245,2270,1,1,0,1
2.66797558,2266,1,1,0,1
2.66992871,2268,1,1,0,1
2.67188184,2273,1,1,0,1
2.67383497,2275,1,1,0,1
2.6757881,2278,1,1,0,1
2.67774123,2283,1,1,0,1
2.67969436,2286,1,1,0,1
2.68164749,2290,1,1,0,1
2.68360062,2293,1,1,0,1
2.68555375,2291,1,1,0,1
2.68750688,2289,1,1,0,1
2.68946001,2285,1,1,0,1
2.69141314,2278,1,1,0,1
2.69336627,2271,1,1,0,1
2.6953194,2265,1,1,0,1
2.69727253,2255,1,1,0,1
2.69922566,2249,1,1,0,1
2.70117879,2243,1,1,0,1
2.70313192,2237,1,1,0,1
2.70508505,2237,1,1,0,1
2.70703818,2242,1,1,0,1
2.70899131,2250,1,1,0,1
2.71094444,2258,1,1,0,1
2.71289757,2262,1,1,0,1
2.7148507,2261,1,1,0,1
2.71680383,2257,1,1,0,1
2.71875696,2253,1,1,0,1
2.72071009,2254,1,1,0,1
2.72266322,2258,0,1,0,0
2.72461635,2240,0,1,0,0
2.72656948,0,0,1,0,0
2.72852261,0,0,1,1,0
2.73047574,2261,1,1,0,1
2.73242887,2259,1,1,0,1
2.734382,2265,1,1,0,1
2.73633513,2271,1,1,0,1
2.73828826,2277,1,1,0,1
2.74024139,2283,1,1,0,1
2.74219452,2291,1,1,0,1
2.74414765,2299,1,1,0,1
2.74610078,2302,1,1,0,1
2.74805391,2306,1,1,0,1
2.75000704,2309,1,1,0,1
2.75196017,2314,1,1,0,1
2.7539133,2324,1,1,0,1
2.75586643,2335,1,1,0,1
2.75781956,2343,1,1,0,1
2.75977269,2350,1,1,0,1
2.76172582,2357,1,1,0,1
2.76367895,2361,1,1,0,1
2.76563208,2367,1,1,0,1
2.76758521,2370,1,1,0,1
2.76953834,2367,1,1,0,1
2.77149147,2367,1,1,0,1
2.7734446,2367,1,1,0,1
2.77539773,2367,1,1,0,1
2.77735086,2366,1,1,0,1
2.77930399,2366,1,1,0,1
2.78125712,2365,1,1,0,1
2.78321025,2362,1,1,0,1
2.78516338,2358,1,1,0,1
2.78711651,2355,1,1,0,1
2.78906964,2349,1,1,0,1
2.79102277,2346,1,1,0,1
2.7929759,2342,1,1,0,1
2.79492903,2340,1,1,0,1
2.79688216,2335,1,1,0,1
2.79883529,2330,1,1,0,1
2.80078842,2321,1,1,0,1
2.80274155,2309,1,1,0,1
2.80469468,2298,1,0,0,1
2.80664781,2288,0,1,0,0
2.80860094,2048,0,1,0,0
2.81055407,0,0,1,1,0
2.8125072,2282,1,1,0,1
2.81446033,2278,1,1,0,1
2.81641346,2269,1,1,0,1
2.81836659,2254,1,1,0,1
2.82031972,2231,1,1,0,1
2.82227285,2211,1,1,0,1
2.82422598,2188,1,1,0,1
2.82617911,2166,1,1,0,1
2.82813224,2149,1,1,0,1
2.83008537,2127,1,1,0,1
2.8320385,2099,1,1,0,1
2.83399163,2068,1,1,0,1
2.83594476,2037,1,1,0,1
2.83789789,2011,1,1,0,1
2.83985102,1989,1,1,0,1
2.84180415,1971,1,1,0,1
2.84375728,1957,1,1,0,1
2.84571041,1946,1,1,0,1
2.84766354,1934,1,1,0,1
2.84961667,1918,1,1,0,1
2.8515698,1897,1,1,0,1
2.85352293,1868,1,1,0,1
2.85547606,1837,1,1,0,1
2.85742919,1807,1,1,0,1
2.85938232,1782,1,1,0,1
2.86133545,1763,1,1,0,1
2.86328858,1741,1,1,0,1
2.86524171,1723,1,1,0,1
2.86719484,1711,1,1,0,1
2.86914797,1702,1,1,0,1
2.8711011,1700,1,1,0,1
2.87305423,1699,1,1,0,1
2.87500736,1697,1,1,0,1
2.87696049,1699,1,1,0,1
2.87891362,1701,1,1,0,1
2.88086675,1693,1,1,0,1
2.88281988,1678,1,1,0,1
2.88477301,1665,1,1,0,1
2.88672614,1657,1,1,0,1
2.88867927,1657,1,1,0,1
2.8906324,1664,0,0,0,0
2.89258553,1024,0,1,0,0
2.89453866,0,0,1,0,0
2.89649179,1693,1,1,0,1
2.89844492,1707,1,1,0,1
2.90039805,1725,1,1,0,1
2.90235118,1740,1,1,0,1
2.90430431,1753,1,1,0,1
2.90625744,1765,1,1,0,1
2.90821057,1774,1,1,0,1
2.9101637,1786,1,1,0,1
2.91211683,1798,1,1,0,1
2.91406996,1803,1,1,0,1
2.91602309,1800,1,1,0,1
2.91797622,1791,1,1,0,1
2.91992935,1779,1,1,0,1
2.92188248,1774,1,1,0,1
2.92383561,1768,1,1,0,1
2.92578874,1765,1,1,0,1
2.92774187,1769,1,1,0,1
2.929695,1775,1,1,0,1
2.93164813,1770,1,1,0,1
2.93360126,1753,1,1,0,1
2.93555439,1739,1,1,0,1
2.93750752,1737,1,1,0,1
2.93946065,1746,1,1,0,1
2.94141378,1759,1,1,0,1
2.94336691,1772,1,1,0,1
2.94532004,1789,1,1,0,1
2.94727317,1809,1,1,0,1
2.9492263,1828,1,1,0,1
2.95117943,1841,1,1,0,1
2.95313256,1849,1,1,0,1
2.95508569,1858,1,1,0,1
2.95703882,1867,1,1,0,1
2.95899195,1874,1,1,0,1
2.96094508,1876,1,1,0,1
2.96289821,1871,1,1,0,1
2.96485134,1860,1,1,0,1
2.96680447,1836,1,1,0,1
2.9687576,1820,1,1,0,1
2.97071073,1820,1,1,0,1
2.97266386,1826,0,0,0,0
2.97461699,1792,0,0,0,0
2.97657012,0,0,0,0,0
2.97852325,0,0,1,1,0
2.98047638,1833,1,1,0,1
2.98242951,1835,1,1,0,1
2.98438264,1835,1,1,0,1
2.98633577,1837,1,1,0,1
2.9882889,1841,1,1,0,1
2.99024203,1845,1,1,0,1
2.99219516,1851,1,1,0,1
2.99414829,1861,1,1,0,1
2.99610142,1871,1,1,0,1
2.99805455,1878,1,1,0,1
3.00000768,1884,1,1,0,1
3.00196081,1889,1,1,0,1
3.00391394,1891,1,1,0,1
3.00586707,1883,1,1,0,1
3.0078202,1869,1,1,0,1
3.00977333,1866,1,1,0,1
3.01172646,1865,1,1,0,1
3.01367959,1866,1,1,0,1
3.01563272,1868,1,1,0,1
3.01758585,1870,1,1,0,1
3.01953898,1873,1,1,0,1
3.02149211,1881,1,1,0,1
3.02344524,1897,1,1,0,1
3.02539837,1918,1,1,0,1
3.0273515,1935,1,1,0,1
3.02930463,1943,1,1,0,1
3.03125776,1939,1,1,0,1
3.03321089,1919,1,1,0,1
3.03516402,1901,1,1,0,1
3.03711715,1891,1,1,0,1
3.03907028,1891,1,1,0,1
3.04102341,1895,1,1,0,1
3.04297654,1900,1,1,0,1
3.04492967,1901,1,1,0,1
3.0468828,1901,1,1,0,1
3.04883593,1903,1,1,0,1
3.05078906,1911,1,1,0,1
3.05274219,1919,1,1,0,1
3.05469532,1919,1,1,0,1
3.05664845,1912,0,1,0,0
3.05860158,1792,0,1,0,0
3.06055471,0,0,0,0,0
3.06250784,1940,1,1,0,1
3.06446097,1951,1,1,0,1
3.0664141,1954,1,1,0,1
3.06836723,1946,1,1,0,1
3.07032036,1935,1,1,0,1
3.07227349,1924,1,1,0,1
3.07422662,1923,1,1,0,1
3.07617975,1925,1,1,0,1
3.07813288,1931,1,1,0,1
3.08008601,1941,1,1,0,1
3.08203914,1953,1,1,0,1
3.08399227,1962,1,1,0,1
3.0859454,1965,1,1,0,1
3.08789853,1963,1,1,0,1
3.08985166,1959,1,1,0,1
3.09180479,1951,1,1,0,1
3.09375792,1951,1,1,0,1
3.09571105,1958,1,1,0,1
3.09766418,1961,1,1,0,1
3.09961731,1961,1,1,0,1
3.10157044,1951,1,1,0,1
3.10352357,1939,1,1,0,1
3.1054767,1932,1,1,0,1
3.10742983,1934,1,1,0,1
3.10938296,1942,1,1,0,1
3.11133609,1947,1,1,0,1
3.11328922,1954,1,1,0,1
3.11524235,1954,1,1,0,1
3.11719548,1951,1,1,0,1
3.11914861,1950,1,1,0,1
3.12110174,1951,1,1,0,1
3.12305487,1959,1,1,0,1
3.125008,1971,1,1,0,1
3.12696113,1978,1,1,0,1
3.12891426,1978,1,1,0,1
3.13086739,1975,1,1,0,1
3.13282052,1975,1,1,0,1
3.13477365,1978,1,1,0,1
3.13672678,1979,1,1,0,1
3.13867991,1977,1,1,0,1
3.14063304,1968,0,1,0,0
3.14258617,1536,0,1,0,0
3.1445393,0,0,1,0,0
3.14649243,1962,1,1,0,1
3.14844556,1955,1,1,0,1
3.15039869,1950,1,1,0,1
3.15235182,1951,1,1,0,1
3.15430495,1951,1,1,0,1
3.15625808,1951,1,1,0,1
3.15821121,1949,1,1,0,1
3.16016434,1948,1,1,0,1
3.16211747,1951,1,1,0,1
3.1640706,1959,1,1,0,1
3.16602373,1970,1,1,0,1
3.16797686,1978,1,1,0,1
3.16992999,1979,1,1,0,1
3.17188312,1977,1,1,0,1
3.17383625,1972,1,1,0,1
3.17578938,1967,1,1,0,1
3.17774251,1966,1,1,0,1
3.17969564,1965,1,1,0,1
3.18164877,1964,1,1,0,1
3.1836019,1962,1,1,0,1
3.18555503,1958,1,1,0,1
3.18750816,1955,1,1,0,1
3.18946129,1946,1,1,0,1
3.19141442,1939,1,1,0,1
3.19336755,1937,1,1,0,1
3.19532068,1938,1,1,0,1
3.19727381,1941,1,1,0,1
3.19922694,1945,1,1,0,1
3.20118007,1948,1,1,0,1
3.2031332,1954,1,1,0,1
3.20508633,1959,1,1,0,1
3.20703946,1965,1,1,0,1
3.20899259,1969,1,1,0,1
3.21094572,1973,1,1,0,1
3.21289885,1975,1,1,0,1
3.21485198,1977,1,1,0,1
3.21680511,1975,1,1,0,1
3.21875824,1973,1,1,0,1
3.22071137,1967,1,1,0,1
3.2226645,1960,0,1,0,0
3.22461763,1920,0,1,0,0
3.22657076,0,0,0,0,0
3.22852389,0,0,1,1,0
3.23047702,1956,1,1,0,1
3.23243015,1955,1,1,0,1
3.23438328,1957,1,1,0,1
3.23633641,1960,1,1,0,1
3.23828954,1965,1,1,0,1
3.24024267,1967,1,1,0,1
3.2421958,1969,1,1,0,1
3.24414893,1969,1,1,0,1
3.24610206,1970,1,1,0,1
3.24805519,1969,1,1,0,1
3.25000832,1966,1,1,0,1
3.25196145,1961,1,1,0,1
3.25391458,1959,1,1,0,1
3.25586771,1964,1,1,0,1
3.25782084,1971,1,1,0,1
3.25977397,1979,1,1,0,1
3.2617271,1988,1,1,0,1
3.26368023,1991,1,1,0,1
3.26563336,1992,1,1,0,1
3.26758649,1989,1,1,0,1
3.26953962,1981,1,1,0,1
3.27149275,1974,1,1,0,1
3.27344588,1964,1,1,0,1
3.27539901,1956,1,1,0,1
3.27735214,1953,1,1,0,1
3.27930527,1951,1,1,0,1
3.2812584,1950,1,1,0,1
3.28321153,1947,1,1,0,1
3.28516466,1946,1,1,0,1
3.28711779,1947,1,1,0,1
3.28907092,1950,1,1,0,1
3.29102405,1957,1,1,0,1
3.29297718,1963,1,1,0,1
3.29493031,1975,1,1,0,1
3.29688344,1989,1,1,0,1
3.29883657,2001,1,1,0,1
3.3007897,2013,1,1,0,1
3.30274283,2026,1,1,0,1
3.30469596,2037,1,1,0,1
3.30664909,2044,0,1,0,0
3.30860222,1792,0,1,0,0
3.31055535,0,0,0,0,0
3.31250848,2045,1,1,0,1
3.31446161,2036,1,1,0,1
3.31641474,2023,1,1,0,1
3.31836787,2007,1,1,0,1
3.320321,1993,1,1,0,1
3.32227413,1981,1,1,0,1
3.32422726,1977,1,1,0,1
3.32618039,1977,1,1,0,1
3.32813352,1976,1,1,0,1
3.33008665,1974,1,1,0,1
3.33203978,1974,1,1,0,1
3.33399291,1977,1,1,0,1
3.33594604,1986,1,1,0,1
3.33789917,2002,1,1,0,1
3.3398523,2023,1,1,0,1
3.34180543,2047,1,1,0,1
3.34375856,2074,1,1,0,1
3.34571169,2097,1,1,0,1
3.34766482,2114,1,1,0,1
3.34961795,2123,1,1,0,1
3.35157108,2125,1,1,0,1
3.35352421,2121,1,1,0,1
3.35547734,2109,1,1,0,1
3.35743047,2093,1,1,0,1
3.3593836,2074,1,1,0,1
3.36133673,2053,1,1,0,1
3.36328986,2029,1,1,0,1
3.36524299,2009,1,1,0,1
3.36719612,1983,1,1,0,1
3.36914925,1957,1,1,0,1
3.37110238,1931,1,1,0,1
3.37305551,1907,1,1,0,1
3.37500864,1890,1,1,0,1
3.37696177,1877,1,1,0,1
3.3789149,1867,1,1,0,1
3.38086803,1862,1,1,0,1
3.38282116,1858,1,1,0,1
3.38477429,1853,1,1,0,1
3.38672742,1849,1,1,0,1
3.38868055,1846,1,0,0,1
3.39063368,1840,0,1,0,0
3.39258681,1536,0,1,0,0
3.39453994,0,0,1,0,0
3.39649307,1860,1,1,0,1
3.3984462,1866,1,1,0,1
3.40039933,1871,1,1,0,1
3.40235246,1874,1,1,0,1
3.40430559,1874,1,1,0,1
3.40625872,1875,1,1,0,1
3.40821185,1878,1,1,0,1
3.41016498,1883,1,1,0,1
3.41211811,1891,1,1,0,1
3.41407124,1897,1,1,0,1
3.41602437,1899,1,1,0,1
3.4179775,1898,1,1,0,1
3.41993063,1891,1,1,0,1
3.42188376,1882,1,1,0,1
3.42383689,1877,1,1,0,1
3.42579002,1876,1,1,0,1
3.42774315,1879,1,1,0,1
3.42969628,1885,1,1,0,1
3.43164941,1894,1,1,0,1
3.43360254,1906,1,1,0,1
3.43555567,1924,1,1,0,1
3.4375088,1947,1,1,0,1
3.43946193,1979,1,1,0,1
3.44141506,2009,1,1,0,1
3.44336819,2037,1,1,0,1
3.44532132,2067,1,1,0,1
3.44727445,2101,1,1,0,1
3.44922758,2141,1,1,0,1
3.45118071,2189,1,1,0,1
3.45313384,2250,1,1,0,1
3.45508697,2327,1,1,0,1
3.4570401,2429,1,1,0,1
3.45899323,2567,1,1,0,1
3.46094636,2743,1,1,0,1
3.46289949,2950,1,1,0,1
3.46485262,3166,1,1,0,1
3.46680575,3366,1,1,0,1
3.46875888,3507,1,1,0,1
3.47071201,3531,1,1,0,1
3.47266514,3428,0,1,0,0
3.47461827,3200,0,0,0,0
3.4765714,2048,0,0,0,0
3.47852453,0,0,1,1,0
3.48047766,2618,1,1,0,1
3.48243079,2250,1,1,0,1
3.48438392,1864,1,1,0,1
3.48633705,1461,1,1,0,1
3.48829018,1046,1,1,0,1
3.49024331,641,1,1,0,1
3.49219644,274,1,1,0,1
3.49414957,27,1,1,0,1
3.4961027,1,1,1,0,1
3.49805583,0,1,1,0,1
3.50000896,0,1,1,0,1
3.50196209,0,1,1,0,1
3.50391522,0,1,1,0,1
3.50586835,4,1,1,0,1
3.50782148,61,1,1,0,1
3.50977461,163,1,1,0,1
3.51172774,298,1,1,0,1
3.51368087,456,1,1,0,1
3.515634,630,1,1,0,1
3.51758713,810,1,1,0,1
3.51954026,990,1,1,0,1
3.52149339,1168,1,1,0,1
3.52344652,1337,1,1,0,1
3.52539965,1497,1,1,0,1
3.52735278,1653,1,1,0,1
3.52930591,1801,1,1,0,1
3.53125904,1939,1,1,0,1
3.53321217,2065,1,1,0,1
3.5351653,2165,1,1,0,1
3.53711843,2246,1,1,0,1
3.53907156,2311,1,1,0,1
3.54102469,2363,1,1,0,1
3.54297782,2405,1,1,0,1
3.54493095,2430,1,1,0,1
3.54688408,2445,1,1,0,1
3.54883721,2450,1,1,0,1
3.55079034,2444,1,1,0,1
3.55274347,2431,1,1,0,1
3.5546966,2414,1,1,0,1
3.55664973,2392,0,0,0,0
3.55860286,2304,0,0,0,0
3.56055599,0,0,0,0,0
3.56250912,2359,1,1,0,1
3.56446225,2343,1,1,0,1
3.56641538,2327,1,1,0,1
3.56836851,2315,1,1,0,1
3.57032164,2303,1,1,0,1
3.57227477,2298,1,1,0,1
3.5742279,2297,1,1,0,1
3.57618103,2297,1,1,0,1
3.57813416,2299,1,1,0,1
3.58008729,2306,1,1,0,1
3.58204042,2310,1,1,0,1
3.58399355,2313,1,1,0,1
3.58594668,2312,1,1,0,1
3.58789981,2310,1,1,0,1
3.58985294,2307,1,1,0,1
3.59180607,2299,1,1,0,1
3.5937592,2297,1,1,0,1
3.59571233,2295,1,1,0,1
3.59766546,2293,1,1,0,1
3.59961859,2293,1,1,0,1
3.60157172,2291,1,1,0,1
3.60352485,2286,1,1,0,1
3.60547798,2285,1,1,0,1
3.60743111,2286,1,1,0,1
3.60938424,2291,1,1,0,1
3.61133737,2295,1,1,0,1
3.6132905,2297,1,1,0,1
3.61524363,2299,1,1,0,1
3.61719676,2298,1,1,0,1
3.61914989,2295,1,1,0,1
3.62110302,2292,1,1,0,1
3.62305615,2289,1,1,0,1
3.62500928,2287,1,1,0,1
3.62696241,2287,1,1,0,1
3.62891554,2285,1,1,0,1
3.63086867,2278,1,1,0,1
3.6328218,2270,1,1,0,1
3.63477493,2265,1,1,0,1
3.63672806,2261,1,1,0,1
3.63868119,2261,1,1,0,1
3.64063432,2256,0,0,0,0
3.64258745,2048,0,0,0,0
3.64454058,0,0,1,0,0
3.64649371,2259,1,1,0,1
3.64844684,2259,1,1,0,1
3.65039997,2259,1,1,0,1
3.6523531,2260,1,1,0,1
3.65430623,2262,1,1,0,1
3.65625936,2263,1,1,0,1
3.65821249,2266,1,1,0,1
3.66016562,2268,1,1,0,1
3.66211875,2269,1,1,0,1
3.66407188,2266,1,1,0,1
3.66602501,2260,1,1,0,1
3.66797814,2255,1,1,0,1
3.66993127,2252,1,1,0,1
3.6718844,2252,1,1,0,1
3.67383753,2253,1,1,0,1
3.67579066,2257,1,1,0,1
3.67774379,2263,1,1,0,1
3.67969692,2271,1,1,0,1
3.68165005,2283,1,1,0,1
3.68360318,2300,1,1,0,1
3.68555631,2324,1,1,0,1
3.68750944,2345,1,1,0,1
3.68946257,2361,1,1,0,1
3.6914157,2371,1,1,0,1
3.69336883,2378,1,1,0,1
3.69532196,2386,1,1,0,1
3.69727509,2395,1,1,0,1
3.69922822,2402,1,1,0,1
3.70118135,2406,1,1,0,1
3.70313448,2412,1,1,0,1
3.70508761,2418,1,1,0,1
3.70704074,2425,1,1,0,1
3.70899387,2438,1,1,0,1
3.710947,2449,1,1,0,1
3.71290013,2460,1,1,0,1
3.71485326,2468,1,1,0,1
3.71680639,2475,1,1,0,1
3.71875952,2479,1,1,0,1
3.72071265,2483,1,1,0,1
3.72266578,2487,0,1,0,0
3.72461891,2432,0,1,0,0
3.72657204,2048,0,0,0,0
3.72852517,0,0,1,1,0
3.7304783,2519,1,1,0,1
3.73243143,2535,1,1,0,1
3.73438456,2547,1,1,0,1
3.73633769,2553,1,1,0,1
3.73829082,2557,1,1,0,1
3.74024395,2563,1,1,0,1
3.74219708,2559,1,1,0,1
3.74415021,2557,1,1,0,1
3.74610334,2554,1,1,0,1
3.74805647,2547,1,1,0,1
3.7500096,2535,1,1,0,1
3.75196273,2518,1,1,0,1
3.75391586,2498,1,1,0,1
3.75586899,2477,1,1,0,1
3.75782212,2461,1,1,0,1
3.75977525,2451,1,1,0,1
3.76172838,2442,1,1,0,1
3.76368151,2429,1,1,0,1
3.76563464,2411,1,1,0,1
3.76758777,2388,1,1,0,1
3.7695409,2357,1,1,0,1
3.77149403,2323,1,1,0,1
3.77344716,2286,1,1,0,1
3.77540029,2251,1,1,0,1
3.77735342,2216,1,1,0,1
3.77930655,2181,1,1,0,1
3.78125968,2145,1,1,0,1
3.78321281,2107,1,1,0,1
3.78516594,2069,1,1,0,1
3.78711907,2033,1,1,0,1
3.7890722,2001,1,1,0,1
3.79102533,1969,1,1,0,1
3.79297846,1941,1,1,0,1
3.79493159,1913,1,1,0,1
3.79688472,1890,1,1,0,1
3.79883785,1868,1,1,0,1
3.80079098,1844,1,1,0,1
3.80274411,1818,1,1,0,1
3.80469724,1787,1,1,0,1
3.80665037,1756,0,0,0,0
3.8086035,1664,0,1,0,0
3.81055663,0,0,0,0,0
3.81250976,1711,1,1,0,1
3.81446289,1697,1,1,0,1
3.81641602,1684,1,1,0,1
3.81836915,1672,1,1,0,1
3.82032228,1661,1,1,0,1
3.82227541,1655,1,1,0,1
3.82422854,1649,1,1,0,1
3.82618167,1643,1,1,0,1
3.8281348,1641,1,1,0,1
3.83008793,1641,1,1,0,1
3.83204106,1637,1,1,0,1
3.83399419,1633,1,1,0,1
3.83594732,1629,1,1,0,1
3.83790045,1626,1,1,0,1
3.83985358,1625,1,1,0,1
3.84180671,1626,1,1,0,1
3.84375984,1628,1,1,0,1
3.84571297,1634,1,1,0,1
3.8476661,1638,1,1,0,1
3.84961923,1643,1,1,0,1
3.85157236,1647,1,1,0,1
3.85352549,1650,1,1,0,1
3.85547862,1651,1,1,0,1
3.85743175,1653,1,1,0,1
3.85938488,1654,1,1,0,1
3.86133801,1657,1,1,0,1
3.86329114,1662,1,1,0,1
3.86524427,1669,1,1,0,1
3.8671974,1669,1,1,0,1
3.86915053,1668,1,1,0,1
3.87110366,1669,1,1,0,1
3.87305679,1671,1,1,0,1
3.87500992,1674,1,1,0,1
3.87696305,1679,1,1,0,1
3.87891618,1685,1,1,0,1
3.88086931,1690,1,1,0,1
3.88282244,1694,1,1,0,1
3.88477557,1701,1,1,0,1
3.8867287,1709,1,1,0,1
3.88868183,1719,1,1,0,1
3.89063496,1728,0,0,0,0
3.89258809,1536,0,0,0,0
3.89454122,0,0,1,0,0
3.89649435,1750,1,1,0,1
3.89844748,1759,1,1,0,1
3.90040061,1767,1,1,0,1
3.90235374,1769,1,1,0,1
3.90430687,1770,1,1,0,1
3.90626,1768,1,1,0,1
3.90821313,1767,1,1,0,1
3.91016626,1767,1,1,0,1
3.91211939,1769,1,1,0,1
3.91407252,1773,1,1,0,1
3.91602565,1773,1,1,0,1
3.91797878,1773,1,1,0,1
3.91993191,1773,1,1,0,1
3.92188504,1777,1,1,0,1
3.92383817,1781,1,1,0,1
3.9257913,1787,1,1,0,1
3.92774443,1794,1,1,0,1
3.92969756,1799,1,1,0,1
3.93165069,1805,1,1,0,1
3.93360382,1809,1,1,0,1
3.93555695,1811,1,1,0,1
3.93751008,1815,1,1,0,1
3.93946321,1821,1,1,0,1
3.94141634,1826,1,1,0,1
3.94336947,1829,1,1,0,1
3.9453226,1831,1,1,0,1
3.94727573,1830,1,1,0,1
3.94922886,1827,1,1,0,1
3.95118199,1823,1,1,0,1
3.95313512,1822,1,1,0,1
3.95508825,1825,1,1,0,1
3.95704138,1833,1,1,0,1
3.95899451,1839,1,1,0,1
3.96094764,1847,1,1,0,1
3.96290077,1857,1,1,0,1
3.9648539,1866,1,1,0,1
3.96680703,1875,1,1,0,1
3.96876016,1883,1,1,0,1
3.97071329,1887,1,1,0,1
3.97266642,1887,0,1,0,0
3.97461955,1888,0,1,0,0
3.97657268,0,0,1,0,0
3.97852581,0,0,1,1,0
3.98047894,1890,1,1,0,1
3.98243207,1885,1,1,0,1
3.9843852,1881,1,1,0,1
3.98633833,1877,1,1,0,1
3.98829146,1873,1,1,0,1
3.99024459,1869,1,1,0,1
3.99219772,1869,1,1,0,1
3.99415085,1874,1,1,0,1
3.99610398,1878,1,1,0,1
3.99805711,1879,1,1,0,1
4.00001024,1883,1,1,0,1
4.00196337,1887,1,1,0,1
4.0039165,1889,1,1,0,1
4.00586963,1885,1,1,0,1
4.00782276,1881,1,1,0,1
4.00977589,1877,1,1,0,1
4.01172902,1876,1,1,0,1
4.01368215,1881,1,1,0,1
4.01563528,1885,1,1,0,1
4.01758841,1887,1,1,0,1
4.019541540000001,1893,1,1,0,1
4.02149467,1898,1,1,0,1
4.0234478,1906,1,1,0,1
4.02540093,1916,1,1,0,1
4.02735406,1926,1,1,0,1
4.02930719,1931,1,1,0,1
4.03126032,1933,1,1,0,1
4.03321345,1930,1,1,0,1
4.03516658,1923,1,1,0,1
4.03711971,1916,1,1,0,1
4.03907284,1910,1,1,0,1
4.04102597,1907,1,1,0,1
4.0429791,1910,1,1,0,1
4.044932230000001,1917,1,1,0,1
4.04688536,1925,1,1,0,1
4.048838490000001,1926,1,1,0,1
4.05079162,1923,1,1,0,1
4.05274475,1922,1,1,0,1
4.05469788,1918,1,1,0,1
4.05665101,1912,0,0,0,0
4.05860414,1792,0,1,0,0
4.06055727,0,0,0,0,0
4.0625104,1906,1,1,0,1
4.06446353,1907,1,1,0,1
4.06641666,1910,1,1,0,1
4.06836979,1911,1,1,0,1
4.07032292,1914,1,1,0,1
4.07227605,1919,1,1,0,1
4.074229180000001,1927,1,1,0,1
4.07618231,1934,1,1,0,1
4.078135440000001,1938,1,1,0,1
4.08008857,1941,1,1,0,1
4.0820417,1944,1,1,0,1
4.08399483,1942,1,1,0,1
4.08594796,1939,1,1,0,1
4.08790109,1938,1,1,0,1
4.08985422,1939,1,1,0,1
4.09180735,1940,1,1,0,1
4.09376048,1943,1,1,0,1
4.09571361,1948,1,1,0,1
4.09766674,1951,1,1,0,1
4.09961987,1954,1,1,0,1
4.101573,1957,1,1,0,1
4.103526130000001,1961,1,1,0,1
4.10547926,1964,1,1,0,1
4.10743239,1970,1,1,0,1
4.10938552,1977,1,1,0,1
4.11133865,1985,1,1,0,1
4.11329178,1994,1,1,0,1
4.11524491,2003,1,1,0,1
4.11719804,2009,1,1,0,1
4.11915117,2009,1,1,0,1
4.1211043,2006,1,1,0,1
4.12305743,2001,1,1,0,1
4.12501056,1997,1,1,0,1
4.12696369,2001,1,1,0,1
4.12891682,2006,1,1,0,1
4.13086995,2010,1,1,0,1
4.132823080000001,2011,1,1,0,1
4.13477621,2013,1,1,0,1
4.13672934,2014,1,1,0,1
4.13868247,2015,1,1,0,1
4.1406356,2008,0,1,0,0
4.14258873,1536,0,1,0,0
4.14454186,0,0,1,1,0
4.14649499,2015,1,1,0,1
4.14844812,2014,1,1,0,1
4.15040125,2013,1,1,0,1
4.15235438,2014,1,1,0,1
4.15430751,2018,1,1,0,1
4.15626064,2017,1,1,0,1
4.15821377,2012,1,1,0,1
4.1601669,2007,1,1,0,1
4.162120030000001,2006,1,1,0,1
4.16407316,2007,1,1,0,1
4.16602629,2007,1,1,0,1
4.16797942,2007,1,1,0,1
4.16993255,2006,1,1,0,1
4.17188568,2006,1,1,0,1
4.17383881,2005,1,1,0,1
4.17579194,2003,1,1,0,1
4.17774507,2004,1,1,0,1
4.1796982,2005,1,1,0,1
4.18165133,2003,1,1,0,1
4.18360446,2002,1,1,0,1
4.18555759,1999,1,1,0,1
4.187510720000001,1998,1,1,0,1
4.18946385,1997,1,1,0,1
4.191416980000001,1999,1,1,0,1
4.19337011,2002,1,1,0,1
4.19532324,2007,1,1,0,1
4.19727637,2011,1,1,0,1
4.1992295,2013,1,1,0,1
4.20118263,2014,1,1,0,1
4.20313576,2015,1,1,0,1
4.20508889,2015,1,1,0,1
4.20704202,2014,1,1,0,1
4.20899515,2014,1,1,0,1
4.21094828,2013,1,1,0,1
4.21290141,2013,1,1,0,1
4.21485454,2019,1,1,0,1
4.216807670000001,2026,1,1,0,1
4.2187608,2030,1,1,0,1
4.220713930000001,2034,1,1,0,1
4.22266706,2037,1,1,0,1
4.22462019,2016,0,1,0,0
4.22657332,1024,0,1,0,0
4.22852645,0,0,1,1,0
4.23047958,2054,1,1,0,1
4.23243271,2057,1,1,0,1
4.23438584,2060,1,1,0,1
4.23633897,2067,1,1,0,1
4.2382921,2076,1,1,0,1
4.24024523,2085,1,1,0,1
4.24219836,2091,1,1,0,1
4.24415149,2097,1,1,0,1
4.246104620000001,2097,1,1,0,1
4.24805775,2092,1,1,0,1
4.25001088,2086,1,1,0,1
4.25196401,2079,1,1,0,1
4.25391714,2076,1,1,0,1
4.25587027,2075,1,1,0,1
4.2578234,2077,1,1,0,1
4.25977653,2081,1,1,0,1
4.26172966,2084,1,1,0,1
4.26368279,2089,1,1,0,1
4.26563592,2093,1,1,0,1
4.26758905,2097,1,1,0,1
4.26954218,2101,1,1,0,1
4.27149531,2106,1,1,0,1
4.27344844,2116,1,1,0,1
4.275401570000001,2129,1,1,0,1
4.2773547,2146,1,1,0,1
4.27930783,2159,1,1,0,1
4.28126096,2170,1,1,0,1
4.28321409,2179,1,1,0,1
4.28516722,2183,1,1,0,1
4.28712035,2182,1,1,0,1
4.28907348,2174,1,1,0,1
4.29102661,2167,1,1,0,1
4.29297974,2156,1,1,0,1
4.29493287,2139,1,1,0,1
4.296886,2118,1,1,0,1
4.29883913,2098,1,1,0,1
4.30079226,2083,1,1,0,1
4.30274539,2070,1,1,0,1
4.304698520000001,2059,1,1,0,1
4.30665165,2044,0,0,0,0
4.30860478,1920,0,1,0,0
4.31055791,0,0,0,0,0
4.31251104,2021,1,1,0,1
4.31446417,2004,1,1,0,1
4.3164173,1986,1,1,0,1
4.31837043,1962,1,1,0,1
4.32032356,1939,1,1,0,1
4.32227669,1917,1,1,0,1
4.32422982,1901,1,1,0,1
4.32618295,1887,1,1,0,1
4.32813608,1881,1,1,0,1
4.330089210000001,1876,1,1,0,1
4.33204234,1875,1,1,0,1
4.333995470000001,1878,1,1,0,1
4.3359486,1885,1,1,0,1
4.33790173,1894,1,1,0,1
4.33985486,1898,1,1,0,1
4.34180799,1898,1,1,0,1
4.34376112,1901,1,1,0,1
4.34571425,1903,1,1,0,1
4.34766738,1903,1,1,0,1
4.34962051,1905,1,1,0,1
4.35157364,1907,1,1,0,1
4.35352677,1909,1,1,0,1
4.3554799,1915,1,1,0,1
4.35743303,1923,1,1,0,1
4.359386160000001,1929,1,1,0,1
4.36133929,1937,1,1,0,1
4.363292420000001,1945,1,1,0,1
4.36524555,1953,1,1,0,1
4.36719868,1957,1,1,0,1
4.36915181,1963,1,1,0,1
4.37110494,1972,1,1,0,1
4.37305807,1982,1,1,0,1
4.3750112,1996,1,1,0,1
4.37696433,2010,1,1,0,1
4.37891746,2022,1,1,0,1
4.38087059,2033,1,1,0,1
4.38282372,2045,1,1,0,1
4.38477685,2073,1,1,0,1
4.38672998,2122,1,1,0,1
4.388683110000001,2198,1,0,0,1
4.39063624,2304,0,0,0,0
4.39258937,2304,0,1,0,0
4.3945425,0,0,1,1,0
4.39649563,2636,1,1,0,1
4.39844876,2854,1,1,0,1
4.40040189,3107,1,1,0,1
4.40235502,3374,1,1,0,1
4.40430815,3641,1,1,0,1
4.40626128,3885,1,1,0,1
4.40821441,4042,1,1,0,1
4.41016754,4059,1,1,0,1
4.41212067,3973,1,1,0,1
4.4140738,3723,1,1,0,1
4.41602693,3371,1,1,0,1
4.417980060000001,2953,1,1,0,1
4.41993319,2481,1,1,0,1
4.42188632,1981,1,1,0,1
4.42383945,1470,1,1,0,1
4.42579258,954,1,1,0,1
4.42774571,456,1,1,0,1
4.42969884,58,1,1,0,1
4.43165197,3,1,1,0,1
4.4336051,0,1,1,0,1
4.43555823,0,1,1,0,1
4.43751136,0,1,1,0,1
4.43946449,0,1,1,0,1
4.44141762,0,1,1,0,1
4.44337075,0,1,1,0,1
4.44532388,0,1,1,0,1
4.447277010000001,0,1,1,0,1
4.44923014,40,1,1,0,1
4.45118327,157,1,1,0,1
4.4531364,328,1,1,0,1
4.45508953,533,1,1,0,1
4.45704266,760,1,1,0,1
4.45899579,995,1,1,0,1
4.46094892,1237,1,1,0,1
4.46290205,1480,1,1,0,1
4.46485518,1713,1,1,0,1
4.46680831,1922,1,1,0,1
4.46876144,2098,1,1,0,1
4.47071457,2237,1,1,0,1
4.472667700000001,2342,1,0,0,1
4.47462083,2400,0,0,0,0
4.476573960000001,2048,0,0,0,0
4.47852709,0,0,1,1,0
4.48048022,2482,1,1,0,1
4.48243335,2489,1,1,0,1
4.48438648,2479,1,1,0,1
4.48633961,2459,1,1,0,1
4.48829274,2431,1,1,0,1
4.49024587,2407,1,1,0,1
4.492199,2387,1,1,0,1
4.49415213,2371,1,1,0,1
4.49610526,2356,1,1,0,1
4.49805839,2341,1,1,0,1
4.50001152,2326,1,1,0,1
4.501964650000001,2315,1,1,0,1
4.50391778,2308,1,1,0,1
4.505870910000001,2303,1,1,0,1
4.50782404,2303,1,1,0,1
4.50977717,2307,1,1,0,1
4.5117303,2308,1,1,0,1
4.51368343,2307,1,1,0,1
4.51563656,2299,1,1,0,1
4.51758969,2293,1,1,0,1
4.51954282,2285,1,1,0,1
4.52149595,2281,1,1,0,1
4.52344908,2277,1,1,0,1
4.52540221,2277,1,1,0,1
4.52735534,2277,1,1,0,1
4.52930847,2276,1,1,0,1
4.531261600000001,2277,1,1,0,1
4.53321473,2281,1,1,0,1
4.53516786,2286,1,1,0,1
4.53712099,2291,1,1,0,1
4.53907412,2297,1,1,0,1
4.54102725,2303,1,1,0,1
4.54298038,2311,1,1,0,1
4.54493351,2315,1,1,0,1
4.54688664,2317,1,1,0,1
4.54883977,2316,1,1,0,1
4.5507929,2313,1,1,0,1
4.55274603,2307,1,1,0,1
4.55469916,2298,1,1,0,1
4.55665229,2294,0,1,0,0
4.55860542,2176,0,1,0,0
4.560558550000001,0,0,1,0,0
4.56251168,0,0,1,1,0
4.56446481,2284,1,1,0,1
4.56641794,2278,1,1,0,1
4.56837107,2271,1,1,0,1
4.5703242,2266,1,1,0,1
4.57227733,2263,1,1,0,1
4.57423046,2263,1,1,0,1
4.57618359,2266,1,1,0,1
4.57813672,2269,1,1,0,1
4.58008985,2270,1,1,0,1
4.58204298,2271,1,1,0,1
4.58399611,2271,1,1,0,1
4.585949240000001,2269,1,1,0,1
4.58790237,2265,1,1,0,1
4.589855500000001,2261,1,1,0,1
4.59180863,2258,1,1,0,1
4.59376176,2257,1,1,0,1
4.59571489,2258,1,1,0,1
4.59766802,2261,1,1,0,1
4.59962115,2265,1,1,0,1
4.60157428,2267,1,1,0,1
4.60352741,2275,1,1,0,1
4.60548054,2287,1,1,0,1
4.60743367,2299,1,1,0,1
4.6093868,2314,1,1,0,1
4.61133993,2327,1,1,0,1
4.61329306,2334,1,1,0,1
4.615246190000001,2341,1,1,0,1
4.61719932,2346,1,1,0,1
4.619152450000001,2350,1,1,0,1
4.62110558,2353,1,1,0,1
4.62305871,2354,1,1,0,1
4.62501184,2351,1,1,0,1
4.62696497,2351,1,1,0,1
4.6289181,2349,1,1,0,1
4.63087123,2349,1,1,0,1
4.63282436,2350,1,1,0,1
4.63477749,2351,1,1,0,1
4.63673062,2351,1,1,0,1
4.63868375,2354,1,0,0,1
4.64063688,2352,0,0,0,0
4.64259001,2304,0,1,0,0
4.644543140000001,0,0,1,1,0
4.64649627,2373,1,1,0,1
4.648449400000001,2377,1,1,0,1
4.65040253,2379,1,1,0,1
4.65235566,2381,1,1,0,1
4.65430879,2382,1,1,0,1
4.65626192,2382,1,1,0,1
4.65821505,2382,1,1,0,1
4.66016818,2383,1,1,0,1
4.66212131,2387,1,1,0,1
4.66407444,2390,1,1,0,1
4.66602757,2391,1,1,0,1
4.6679807,2389,1,1,0,1
4.66993383,2386,1,1,0,1
4.67188696,2379,1,1,0,1
4.673840090000001,2371,1,1,0,1
4.67579322,2363,1,1,0,1
4.67774635,2358,1,1,0,1
4.67969948,2353,1,1,0,1
4.68165261,2348,1,1,0,1
4.68360574,2341,1,1,0,1
4.68555887,2329,1,1,0,1
4.687512,2318,1,1,0,1
4.68946513,2307,1,1,0,1
4.69141826,2299,1,1,0,1
4.69337139,2296,1,1,0,1
4.69532452,2297,1,1,0,1
4.69727765,2299,1,1,0,1
4.69923078,2299,1,1,0,1
4.70118391,2298,1,1,0,1
4.703137040000001,2293,1,1,0,1
4.70509017,2285,1,1,0,1
4.7070433,2274,1,1,0,1
4.70899643,2259,1,1,0,1
4.71094956,2245,1,1,0,1
4.71290269,2230,1,1,0,1
4.71485582,2214,1,1,0,1
4.71680895,2193,1,1,0,1
4.71876208,2169,1,1,0,1
4.72071521,2143,1,1,0,1
4.72266834,2117,1,1,0,1
4.72462147,2080,0,0,0,0
4.7265746,2048,0,0,0,0
4.728527730000001,0,0,1,1,0
4.73048086,2036,1,1,0,1
4.732433990000001,2013,1,1,0,1
4.73438712,1990,1,1,0,1
4.73634025,1962,1,1,0,1
4.73829338,1932,1,1,0,1
4.74024651,1907,1,1,0,1
4.74219964,1887,1,1,0,1
4.74415277,1874,1,1,0,1
4.7461059,1863,1,1,0,1
4.74805903,1851,1,1,0,1
4.75001216,1838,1,1,0,1
4.75196529,1823,1,1,0,1
4.75391842,1812,1,1,0,1
4.75587155,1803,1,1,0,1
4.757824680000001,1795,1,1,0,1
4.75977781,1787,1,1,0,1
4.761730940000001,1783,1,1,0,1
4.76368407,1783,1,1,0,1
4.7656372,1785,1,1,0,1
4.76759033,1789,1,1,0,1
4.76954346,1790,1,1,0,1
4.77149659,1794,1,1,0,1
4.77344972,1790,1,1,0,1
4.77540285,1789,1,1,0,1
4.77735598,1790,1,1,0,1
4.77930911,1791,1,1,0,1
4.78126224,1796,1,1,0,1
4.78321537,1794,1,1,0,1
4.7851685,1788,1,1,0,1
4.787121630000001,1783,1,1,0,1
4.78907476,1779,1,1,0,1
4.791027890000001,1778,1,1,0,1
4.79298102,1779,1,1,0,1
4.79493415,1779,1,1,0,1
4.79688728,1779,1,1,0,1
4.79884041,1777,1,1,0,1
4.80079354,1770,1,1,0,1
4.80274667,1764,1,1,0,1
4.8046998,1759,1,1,0,1
4.80665293,1758,0,1,0,0
4.80860606,1728,0,1,0,0
4.81055919,0,0,0,0,0
4.81251232,0,0,1,1,0
4.81446545,1778,1,1,0,1
4.816418580000001,1784,1,1,0,1
4.81837171,1789,1,1,0,1
4.82032484,1791,1,1,0,1
4.82227797,1795,1,1,0,1
4.8242311,1798,1,1,0,1
4.82618423,1807,1,1,0,1
4.82813736,1817,1,1,0,1
4.83009049,1827,1,1,0,1
4.83204362,1834,1,1,0,1
4.83399675,1836,1,1,0,1
4.83594988,1833,1,1,0,1
4.83790301,1823,1,1,0,1
4.83985614,1811,1,1,0,1
4.84180927,1803,1,1,0,1
4.8437624,1802,1,1,0,1
4.845715530000001,1805,1,1,0,1
4.84766866,1807,1,1,0,1
4.84962179,1807,1,1,0,1
4.85157492,1803,1,1,0,1
4.85352805,1794,1,1,0,1
4.85548118,1785,1,1,0,1
4.85743431,1780,1,1,0,1
4.85938744,1781,1,1,0,1
4.86134057,1790,1,1,0,1
4.8632937,1805,1,1,0,1
4.86524683,1819,1,1,0,1
4.86719996,1829,1,1,0,1
4.86915309,1831,1,1,0,1
4.871106220000001,1823,1,1,0,1
4.87305935,1817,1,1,0,1
4.875012480000001,1809,1,1,0,1
4.87696561,1804,1,1,0,1
4.87891874,1805,1,1,0,1
4.88087187,1814,1,1,0,1
4.882825,1830,1,1,0,1
4.88477813,1849,1,1,0,1
4.88673126,1863,1,1,0,1
4.88868439,1870,1,0,0,1
4.89063752,1864,0,1,0,0
4.89259065,1792,0,1,0,0
4.89454378,0,0,1,1,0
4.89649691,1870,1,1,0,1
4.89845004,1871,1,1,0,1
4.900403170000001,1874,1,1,0,1
4.9023563,1878,1,1,0,1
4.904309430000001,1886,1,1,0,1
4.90626256,1895,1,1,0,1
4.90821569,1899,1,1,0,1
4.91016882,1898,1,1,0,1
4.91212195,1891,1,1,0,1
4.91407508,1877,1,1,0,1
4.91602821,1861,1,1,0,1
4.91798134,1844,1,1,0,1
4.91993447,1833,1,1,0,1
4.9218876,1827,1,1,0,1
4.92384073,1826,1,1,0,1
4.92579386,1830,1,1,0,1
4.92774699,1838,1,1,0,1
4.929700120000001,1847,1,1,0,1
4.93165325,1853,1,1,0,1
4.933606380000001,1859,1,1,0,1
4.93555951,1859,1,1,0,1
4.93751264,1855,1,1,0,1
4.93946577,1854,1,1,0,1
4.9414189,1854,1,1,0,1
4.94337203,1855,1,1,0,1
4.94532516,1860,1,1,0,1
4.94727829,1860,1,1,0,1
4.94923142,1855,1,1,0,1
4.95118455,1849,1,1,0,1
4.95313768,1843,1,1,0,1
4.95509081,1842,1,1,0,1
4.95704394,1847,1,1,0,1
4.958997070000001,1861,1,1,0,1
4.9609502,1873,1,1,0,1
4.962903330000001,1876,1,1,0,1
4.96485646,1869,1,1,0,1
4.96680959,1854,1,1,0,1
4.96876272,1835,1,1,0,1
4.97071585,1821,1,1,0,1
4.97266898,1819,1,1,0,1
4.97462211,1824,0,0,0,0
4.97657524,1024,0,1,0,0
4.97852837,0,0,1,0,0
4.9804815,1913,1,1,0,1
4.98243463,1945,1,1,0,1
4.98438776,1969,1,1,0,1
4.98634089,1983,1,1,0,1
4.988294020000001,1993,1,1,0,1
4.99024715,1995,1,1,0,1
4.99220028,1993,1,1,0,1
4.99415341,1991,1,1,0,1
4.99610654,1986,1,1,0,1
4.99805967,1977,1,1,0,1
5.0000128,1967,1,1,0,1
5.00196593,1959,1,1,0,1
5.00391906,1955,1,1,0,1
5.00587219,1957,1,1,0,1
5.00782532,1962,1,1,0,1
5.00977845,1966,1,1,0,1
5.01173158,1972,1,1,0,1
5.013684710000001,1975,1,1,0,1
5.01563784,1977,1,1,0,1
5.017590970000001,1972,1,1,0,1
5.0195441,1962,1,1,0,1
5.02149723,1948,1,1,0,1
5.02345036,1937,1,1,0,1
5.02540349,1927,1,1,0,1
5.02735662,1926,1,1,0,1
5.02930975,1932,1,1,0,1
5.03126288,1939,1,1,0,1
5.03321601,1941,1,1,0,1
5.03516914,1937,1,1,0,1
5.03712227,1931,1,1,0,1
5.0390754,1930,1,1,0,1
5.04102853,1935,1,1,0,1
5.042981660000001,1947,1,1,0,1
5.04493479,1961,1,1,0,1
5.046887920000001,1976,1,1,0,1
5.04884105,1993,1,1,0,1
5.05079418,2009,1,1,0,1
5.05274731,2019,1,1,0,1
5.05470044,2021,1,1,0,1
5.05665357,2014,0,1,0,0
5.0586067,1984,0,1,0,0
5.06055983,0,0,0,0,0
5.06251296,0,0,1,1,0
5.06446609,2005,1,1,0,1
5.06641922,2013,1,1,0,1
5.06837235,2020,1,1,0,1
5.07032548,2019,1,1,0,1
5.072278610000001,2010,1,1,0,1
5.07423174,2002,1,1,0,1
5.076184870000001,1995,1,1,0,1
5.078138,1993,1,1,0,1
5.08009113,1993,1,1,0,1
5.08204426,1995,1,1,0,1
5.08399739,2001,1,1,0,1
5.08595052,2010,1,1,0,1
5.08790365,2019,1,1,0,1
5.08985678,2027,1,1,0,1
5.09180991,2037,1,1,0,1
5.09376304,2044,1,1,0,1
5.09571617,2047,1,1,0,1
5.0976693,2053,1,1,0,1
5.09962243,2054,1,1,0,1
5.101575560000001,2053,1,1,0,1
5.10352869,2053,1,1,0,1
5.105481820000001,2053,1,1,0,1
5.10743495,2057,1,1,0,1
5.10938808,2059,1,1,0,1
5.11134121,2059,1,1,0,1
5.11329434,2057,1,1,0,1
5.11524747,2053,1,1,0,1
5.1172006,2057,1,1,0,1
5.11915373,2062,1,1,0,1
5.12110686,2068,1,1,0,1
5.12305999,2069,1,1,0,1
5.12501312,2070,1,1,0,1
5.12696625,2071,1,1,0,1
5.12891938,2074,1,1,0,1
5.130872510000001,2077,1,1,0,1
5.13282564,2084,1,1,0,1
5.13477877,2089,1,1,0,1
5.1367319,2088,1,1,0,1
5.13868503,2075,1,1,0,1
5.14063816,2056,0,0,0,0
5.14259129,1792,0,1,0,0
5.14454442,0,0,1,1,0
5.14649755,2039,1,1,0,1
5.14845068,2047,1,1,0,1
5.15040381,2063,1,1,0,1
5.15235694,2072,1,1,0,1
5.15431007,2079,1,1,0,1
5.156263200000001,2089,1,1,0,1
5.15821633,2097,1,1,0,1
5.160169460000001,2099,1,1,0,1
5.16212259,2097,1,1,0,1
5.16407572,2097,1,1,0,1
5.16602885,2105,1,1,0,1
5.16798198,2122,1,1,0,1
5.16993511,2143,1,1,0,1
5.17188824,2163,1,1,0,1
5.17384137,2173,1,1,0,1
5.1757945,2172,1,1,0,1
5.17774763,2161,1,1,0,1
5.17970076,2138,1,1,0,1
5.18165389,2110,1,1,0,1
5.18360702,2090,1,1,0,1
5.185560150000001,2086,1,1,0,1
5.18751328,2089,1,1,0,1
5.189466410000001,2101,1,1,0,1
5.19141954,2122,1,1,0,1
5.19337267,2143,1,1,0,1
5.1953258,2164,1,1,0,1
5.19727893,2179,1,1,0,1
5.19923206,2186,1,1,0,1
5.20118519,2188,1,1,0,1
5.20313832,2191,1,1,0,1
5.20509145,2199,1,1,0,1
5.20704458,2212,1,1,0,1
5.20899771,2229,1,1,0,1
5.21095084,2242,1,1,0,1
5.21290397,2238,1,1,0,1
5.214857100000001,2211,1,1,0,1
5.21681023,2157,1,1,0,1
5.218763360000001,2105,1,1,0,1
5.22071649,2083,1,1,0,1
5.22266962,2095,1,1,0,1
5.22462275,2112,0,0,0,0
5.22657588,2048,0,0,0,0
5.22852901,0,0,1,0,0
5.23048214,2170,1,1,0,1
5.23243527,2171,1,1,0,1
5.2343884,2157,1,1,0,1
5.23634153,2131,1,1,0,1
5.23829466,2104,1,1,0,1
5.24024779,2082,1,1,0,1
5.24220092,2065,1,1,0,1
5.244154050000001,2051,1,1,0,1
5.24610718,2031,1,1,0,1
5.248060310000001,2011,1,1,0,1
5.25001344,1989,1,1,0,1
5.25196657,1974,1,1,0,1
5.2539197,1974,1,1,0,1
5.25587283,1974,1,1,0,1
5.25782596,1971,1,1,0,1
5.25977909,1963,1,1,0,1
5.26173222,1962,1,1,0,1
5.26368535,1966,1,1,0,1
5.26563848,1973,1,1,0,1
5.26759161,1981,1,1,0,1
5.26954474,1994,1,1,0,1
5.27149787,2003,1,1,0,1
5.273451000000001,2003,1,1,0,1
5.27540413,1993,1,1,0,1
5.27735726,1970,1,1,0,1
5.27931039,1942,1,1,0,1
5.28126352,1926,1,1,0,1
5.28321665,1927,1,1,0,1
5.28516978,1946,1,1,0,1
5.28712291,1971,1,1,0,1
5.28907604,2004,1,1,0,1
5.29102917,2037,1,1,0,1
5.2929823,2067,1,1,0,1
5.29493543,2076,1,1,0,1
5.29688856,2068,1,1,0,1
5.298841690000001,2045,1,1,0,1
5.30079482,2021,1,1,0,1
5.302747950000001,2007,1,1,0,1
5.30470108,2005,1,1,0,1
5.30665421,2002,0,0,0,0
5.30860734,1984,0,0,0,0
5.31056047,0,0,0,0,0
5.3125136,0,0,1,1,0
5.31446673,1994,1,1,0,1
5.31641986,2004,1,1,0,1
5.31837299,2035,1,1,0,1
5.32032612,2100,1,1,0,1
5.32227925,2201,1,1,0,1
5.32423238,2346,1,1,0,1
5.32618551,2532,1,1,0,1
5.328138640000001,2762,1,1,0,1
5.33009177,3021,1,1,0,1
5.332044900000001,3291,1,1,0,1
5.33399803,3561,1,1,0,1
5.33595116,3829,1,1,0,1
5.33790429,4038,1,1,0,1
5.33985742,4059,1,1,0,1
5.34181055,4061,1,1,0,1
5.34376368,4061,1,1,0,1
5.34571681,3925,1,1,0,1
5.34766994,3643,1,1,0,1
5.34962307,3251,1,1,0,1
5.3515762,2775,1,1,0,1
5.35352933,2252,1,1,0,1
5.35548246,1699,1,1,0,1
5.357435590000001,1121,1,1,0,1
5.35938872,551,1,1,0,1
5.361341850000001,78,1,1,0,1
5.36329498,3,1,1,0,1
5.36524811,0,1,1,0,1
5.36720124,0,1,1,0,1
5.36915437,0,1,1,0,1
5.3711075,0,1,1,0,1
5.37306063,0,1,1,0,1
5.37501376,0,1,1,0,1
5.37696689,0,1,1,0,1
5.37892002,0,1,1,0,1
5.38087315,31,1,1,0,1
5.38282628,139,1,1,0,1
5.38477941,300,1,1,0,1
5.386732540000001,498,1,1,0,1
5.38868567,716,1,1,0,1
5.390638800000001,936,0,0,0,0
5.39259193,1024,0,1,0,0
5.39454506,0,0,0,0,0
5.39649819,1407,1,1,0,1
5.39845132,1646,1,1,0,1
5.40040445,1878,1,1,0,1
5.40235758,2091,1,1,0,1
5.40431071,2265,1,1,0,1
5.40626384,2395,1,1,0,1
5.40821697,2481,1,1,0,1
5.4101701,2526,1,1,0,1
5.412123230000001,2542,1,1,0,1
5.41407636,2534,1,1,0,1
5.416029490000001,2507,1,1,0,1
5.41798262,2462,1,1,0,1
5.41993575,2406,1,1,0,1
5.42188888,2343,1,1,0,1
5.42384201,2279,1,1,0,1
5.42579514,2221,1,1,0,1
5.42774827,2183,1,1,0,1
5.4297014,2174,1,1,0,1
5.43165453,2187,1,1,0,1
5.43360766,2209,1,1,0,1
5.43556079,2229,1,1,0,1
5.43751392,2245,1,1,0,1
5.43946705,2259,1,1,0,1
5.441420180000001,2267,1,1,0,1
5.44337331,2277,1,1,0,1
5.445326440000001,2281,1,1,0,1
5.44727957,2278,1,1,0,1
5.4492327,2274,1,1,0,1
5.45118583,2270,1,1,0,1
5.45313896,2269,1,1,0,1
5.45509209,2265,1,1,0,1
5.45704522,2265,1,1,0,1
5.45899835,2270,1,1,0,1
5.46095148,2283,1,1,0,1
5.46290461,2298,1,1,0,1
5.46485774,2311,1,1,0,1
5.46681087,2316,1,1,0,1
5.468764,2310,1,1,0,1
5.470717130000001,2297,1,1,0,1
5.47267026,2293,1,1,0,1
5.474623390000001,2288,0,1,0,0
5.47657652,2048,0,0,0,0
5.47852965,0,0,1,0,0
5.48048278,2303,1,1,0,1
5.48243591,2302,1,1,0,1
5.48438904,2297,1,1,0,1
5.48634217,2290,1,1,0,1
5.4882953,2279,1,1,0,1
5.49024843,2259,1,1,0,1
5.49220156,2233,1,1,0,1
5.49415469,2213,1,1,0,1
5.49610782,2201,1,1,0,1
5.49806095,2194,1,1,0,1
5.500014080000001,2186,1,1,0,1
5.50196721,2173,1,1,0,1
5.503920340000001,2161,1,1,0,1
5.50587347,2151,1,1,0,1
5.5078266,2150,1,1,0,1
5.50977973,2155,1,1,0,1
5.51173286,2169,1,1,0,1
5.51368599,2185,1,1,0,1
5.51563912,2199,1,1,0,1
5.51759225,2214,1,1,0,1
5.51954538,2226,1,1,0,1
5.52149851,2230,1,1,0,1
5.52345164,2234,1,1,0,1
5.52540477,2235,1,1,0,1
5.5273579,2237,1,1,0,1
5.529311030000001,2245,1,1,0,1
5.53126416,2253,1,1,0,1
5.533217290000001,2253,1,1,0,1
5.53517042,2245,1,1,0,1
5.53712355,2233,1,1,0,1
5.53907668,2226,1,1,0,1
5.54102981,2222,1,1,0,1
5.54298294,2231,1,1,0,1
5.54493607,2252,1,1,0,1
5.5468892,2267,1,1,0,1
5.54884233,2274,1,1,0,1
5.55079546,2274,1,1,0,1
5.55274859,2279,1,1,0,1
5.554701720000001,2299,1,1,0,1
5.55665485,2334,0,1,0,0
5.558607980000001,2368,0,0,0,0
5.56056111,2048,0,0,0,0
5.56251424,0,0,1,1,0
5.56446737,2415,1,1,0,1
5.5664205,2409,1,1,0,1
5.56837363,2383,1,1,0,1
5.57032676,2342,1,1,0,1
5.57227989,2293,1,1,0,1
5.57423302,2265,1,1,0,1
5.57618615,2268,1,1,0,1
5.57813928,2293,1,1,0,1
5.58009241,2321,1,1,0,1
5.58204554,2334,1,1,0,1
5.583998670000001,2330,1,1,0,1
5.5859518,2315,1,1,0,1
5.587904930000001,2297,1,1,0,1
5.58985806,2294,1,1,0,1
5.59181119,2302,1,1,0,1
5.59376432,2325,1,1,0,1
5.59571745,2349,1,1,0,1
5.59767058,2363,1,1,0,1
5.59962371,2369,1,1,0,1
