#Digilent WaveForms Logic Analyzer Acquisition
#Device Name: Discovery2
#Serial Number: SN:210321AA2ABB
#Date Time: 2024-08-27 21:14:12.434
#Sample rate: 500Hz
#Samples: 4096

Time (s),Data,DV,MISO,MOSI,SCK
-2.494,0,1,1,0,1
-2.492,0,1,1,0,1
-2.49,1790,1,1,0,1
-2.488,2047,1,1,0,1
-2.486,5,1,1,0,1
-2.484,0,1,1,0,1
-2.482,2047,1,1,0,1
-2.48,2047,1,1,0,1
-2.478,0,1,1,0,1
-2.476,0,1,1,0,1
-2.474,726,1,1,0,1
-2.472,2047,1,1,0,1
-2.47,1868,1,1,0,1
-2.468,0,1,1,0,1
-2.466,1324,1,1,0,1
-2.464,2047,1,1,0,1
-2.462,1687,1,1,0,1
-2.46,0,1,1,0,1
-2.458,0,1,1,0,1
-2.456,2047,1,1,0,1
-2.454,2047,1,1,0,1
-2.452,0,1,1,0,1
-2.45,135,1,1,0,1
-2.448,2047,1,1,0,1
-2.446,2047,1,1,0,1
-2.444,0,1,1,0,1
-2.442,0,1,1,0,1
-2.44,1821,1,1,0,1
-2.438,2047,1,1,0,1
-2.436,22,1,1,0,1
-2.434,0,1,1,0,1
-2.432,2047,1,1,0,1
-2.43,2047,1,1,0,1
-2.428,0,1,1,0,1
-2.426,0,1,1,0,1
-2.424,724,1,1,0,1
-2.422,2047,1,1,0,1
-2.42,1907,1,1,0,1
-2.418,0,1,1,0,1
-2.416,1303,1,1,0,1
-2.414,2047,1,1,0,1
-2.412,1748,1,1,0,1
-2.41,0,1,1,0,1
-2.408,0,1,1,0,1
-2.406,2047,1,1,0,1
-2.404,2047,1,1,0,1
-2.402,0,1,1,0,1
-2.4,84,1,1,0,1
-2.398,2047,1,1,0,1
-2.396,2047,1,1,0,1
-2.394,0,1,1,0,1
-2.392,0,1,1,0,1
-2.39,1795,1,1,0,1
-2.388,2047,1,1,0,1
-2.386,32,1,1,0,1
-2.384,0,1,1,0,1
-2.382,2047,1,1,0,1
-2.38,2047,1,1,0,1
-2.378,0,1,1,0,1
-2.376,0,1,1,0,1
-2.374,683,1,1,0,1
-2.372,2047,1,1,0,1
-2.37,1889,1,1,0,1
-2.368,0,1,1,0,1
-2.366,1213,1,1,0,1
-2.364,2047,1,1,0,1
-2.362,1731,1,1,0,1
-2.36,0,1,1,0,1
-2.358,0,1,1,0,1
-2.356,2047,1,1,0,1
-2.354,2047,1,1,0,1
-2.352,0,1,1,0,1
-2.35,0,1,1,0,1
-2.348,2047,1,1,0,1
-2.346,2047,1,1,0,1
-2.344,0,1,1,0,1
-2.342,0,1,1,0,1
-2.34,1746,1,1,0,1
-2.338,2047,1,1,0,1
-2.336,38,1,1,0,1
-2.334,0,1,1,0,1
-2.332,2047,1,1,0,1
-2.33,2047,1,1,0,1
-2.328,0,1,1,0,1
-2.326,0,1,1,0,1
-2.324,680,1,1,0,1
-2.322,2047,1,1,0,1
-2.32,1897,1,1,0,1
-2.318,0,1,1,0,1
-2.316,1161,1,1,0,1
-2.314,2047,1,1,0,1
-2.312,1769,1,1,0,1
-2.31,0,1,1,0,1
-2.308,0,1,1,0,1
-2.306,2047,1,1,0,1
-2.304,2047,1,1,0,1
-2.302,0,1,1,0,1
-2.3,0,1,1,0,1
-2.298,2047,1,1,0,1
-2.296,2047,1,1,0,1
-2.294,0,1,1,0,1
-2.292,0,1,1,0,1
-2.29,1868,1,1,0,1
-2.288,2047,1,1,0,1
-2.286,312,1,1,0,1
-2.284,0,1,1,0,1
-2.282,2047,1,1,0,1
-2.28,2047,1,1,0,1
-2.278,298,1,1,0,1
-2.276,0,1,1,0,1
-2.274,1052,1,1,0,1
-2.272,2047,1,1,0,1
-2.27,2047,1,1,0,1
-2.268,0,1,1,0,1
-2.266,1388,1,1,0,1
-2.264,2047,1,1,0,1
-2.262,1897,1,1,0,1
-2.26,0,1,1,0,1
-2.258,0,1,1,0,1
-2.256,2047,1,1,0,1
-2.254,2047,1,1,0,1
-2.252,0,1,1,0,1
-2.25,0,1,1,0,1
-2.248,2047,1,1,0,1
-2.246,2047,1,1,0,1
-2.244,0,1,1,0,1
-2.242,0,1,1,0,1
-2.24,1383,1,1,0,1
-2.238,2047,1,1,0,1
-2.236,16,1,1,0,1
-2.234,0,1,1,0,1
-2.232,2047,1,1,0,1
-2.23,2047,1,1,0,1
-2.228,0,1,1,0,1
-2.226,0,1,1,0,1
-2.224,457,1,1,0,1
-2.222,2047,1,1,0,1
-2.22,2047,1,1,0,1
-2.218,0,1,1,0,1
-2.216,1117,1,1,0,1
-2.214,2047,1,1,0,1
-2.212,1833,1,1,0,1
-2.21,0,1,1,0,1
-2.208,0,1,1,0,1
-2.206,2047,1,1,0,1
-2.204,2047,1,1,0,1
-2.202,0,1,1,0,1
-2.2,19,1,1,0,1
-2.198,2047,1,1,0,1
-2.196,2047,1,1,0,1
-2.194,0,1,1,0,1
-2.192,0,1,1,0,1
-2.19,1733,1,1,0,1
-2.188,2047,1,1,0,1
-2.186,434,1,1,0,1
-2.184,0,1,1,0,1
-2.182,2047,1,1,0,1
-2.18,2047,1,1,0,1
-2.178,96,1,1,0,1
-2.176,0,1,1,0,1
-2.174,642,1,1,0,1
-2.172,2047,1,1,0,1
-2.17,2047,1,1,0,1
-2.168,0,1,1,0,1
-2.166,1249,1,1,0,1
-2.164,2047,1,1,0,1
-2.162,1979,1,1,0,1
-2.16,0,1,1,0,1
-2.158,0,1,1,0,1
-2.156,2047,1,1,0,1
-2.154,2047,1,1,0,1
-2.152,0,1,1,0,1
-2.15,2,1,1,0,1
-2.148,2047,1,1,0,1
-2.146,2047,1,1,0,1
-2.144,0,1,1,0,1
-2.142,0,1,1,0,1
-2.14,1695,1,1,0,1
-2.138,2047,1,1,0,1
-2.136,443,1,1,0,1
-2.134,0,1,1,0,1
-2.132,2047,1,1,0,1
-2.13,2047,1,1,0,1
-2.128,129,1,1,0,1
-2.126,0,1,1,0,1
-2.124,613,1,1,0,1
-2.122,2047,1,1,0,1
-2.12,2047,1,1,0,1
-2.118,0,1,1,0,1
-2.116,1188,1,1,0,1
-2.114,2047,1,1,0,1
-2.112,2045,1,1,0,1
-2.11,0,1,1,0,1
-2.108,0,1,1,0,1
-2.106,2047,1,1,0,1
-2.104,2047,1,1,0,1
-2.102,0,1,1,0,1
-2.1,0,1,1,0,1
-2.098,2047,1,1,0,1
-2.096,2047,1,1,0,1
-2.094,0,1,1,0,1
-2.092,0,1,1,0,1
-2.09,1690,1,1,0,1
-2.088,2047,1,1,0,1
-2.086,471,1,1,0,1
-2.084,0,1,1,0,1
-2.082,2047,1,1,0,1
-2.08,2047,1,1,0,1
-2.078,171,1,1,0,1
-2.076,0,1,1,0,1
-2.074,569,1,1,0,1
-2.072,2047,1,1,0,1
-2.07,2047,1,1,0,1
-2.068,0,1,1,0,1
-2.066,1178,1,1,0,1
-2.064,2047,1,1,0,1
-2.062,2047,1,1,0,1
-2.06,0,1,1,0,1
-2.058,0,1,1,0,1
-2.056,2047,1,1,0,1
-2.054,2047,1,1,0,1
-2.052,0,1,1,0,1
-2.05,0,1,1,0,1
-2.048,2047,1,1,0,1
-2.046,2047,1,1,0,1
-2.044,0,1,1,0,1
-2.042,0,1,1,0,1
-2.04,1655,1,1,0,1
-2.038,2047,1,1,0,1
-2.036,472,1,1,0,1
-2.034,0,1,1,0,1
-2.032,2047,1,1,0,1
-2.03,2047,1,1,0,1
-2.028,263,1,1,0,1
-2.026,0,1,1,0,1
-2.024,592,1,1,0,1
-2.022,2047,1,1,0,1
-2.02,2047,1,1,0,1
-2.018,0,1,1,0,1
-2.016,1134,1,1,0,1
-2.014,2047,1,1,0,1
-2.012,2047,1,1,0,1
-2.01,0,1,1,0,1
-2.008,0,1,1,0,1
-2.006,2047,1,1,0,1
-2.004,2047,1,1,0,1
-2.002,0,1,1,0,1
-2,0,1,1,0,1
-1.998,2047,1,1,0,1
-1.996,2047,1,1,0,1
-1.994,0,1,1,0,1
-1.992,0,1,1,0,1
-1.99,1596,1,1,0,1
-1.988,2047,1,1,0,1
-1.986,431,1,1,0,1
-1.984,0,1,1,0,1
-1.982,2047,1,1,0,1
-1.98,2047,1,1,0,1
-1.978,236,1,1,0,1
-1.976,0,1,1,0,1
-1.974,494,1,1,0,1
-1.972,2047,1,1,0,1
-1.97,2047,1,1,0,1
-1.968,0,1,1,0,1
-1.966,991,1,1,0,1
-1.964,2047,1,1,0,1
-1.962,2047,1,1,0,1
-1.96,0,1,1,0,1
-1.958,0,1,1,0,1
-1.956,2047,1,1,0,1
-1.954,2047,1,1,0,1
-1.952,0,1,1,0,1
-1.95,0,1,1,0,1
-1.948,2047,1,1,0,1
-1.946,2047,1,1,0,1
-1.944,0,1,1,0,1
-1.942,0,1,1,0,1
-1.94,1483,1,1,0,1
-1.938,2047,1,1,0,1
-1.936,342,1,1,0,1
-1.934,0,1,1,0,1
-1.932,2047,1,1,0,1
-1.93,2047,1,1,0,1
-1.928,208,1,1,0,1
-1.926,0,1,1,0,1
-1.924,415,1,1,0,1
-1.922,2047,1,1,0,1
-1.92,2047,1,1,0,1
-1.918,0,1,1,0,1
-1.916,887,1,1,0,1
-1.914,2047,1,1,0,1
-1.912,2047,1,1,0,1
-1.91,0,1,1,0,1
-1.908,0,1,1,0,1
-1.906,2047,1,1,0,1
-1.904,2047,1,1,0,1
-1.902,0,1,1,0,1
-1.9,0,1,1,0,1
-1.898,2047,1,1,0,1
-1.896,2047,1,1,0,1
-1.894,0,1,1,0,1
-1.892,0,1,1,0,1
-1.89,1485,1,1,0,1
-1.888,2047,1,1,0,1
-1.886,435,1,1,0,1
-1.884,0,1,1,0,1
-1.882,2047,1,1,0,1
-1.88,2047,1,1,0,1
-1.878,266,1,1,0,1
-1.876,0,1,1,0,1
-1.874,406,1,1,0,1
-1.872,2047,1,1,0,1
-1.87,2047,1,1,0,1
-1.868,0,1,1,0,1
-1.866,921,1,1,0,1
-1.864,2047,1,1,0,1
-1.862,2047,1,1,0,1
-1.86,0,1,1,0,1
-1.858,0,1,1,0,1
-1.856,2047,1,1,0,1
-1.854,2047,1,1,0,1
-1.852,0,1,1,0,1
-1.85,0,1,1,0,1
-1.848,2047,1,1,0,1
-1.846,2047,1,1,0,1
-1.844,0,1,1,0,1
-1.842,0,1,1,0,1
-1.84,1442,1,1,0,1
-1.838,2047,1,1,0,1
-1.836,548,1,1,0,1
-1.834,0,1,1,0,1
-1.832,2047,1,1,0,1
-1.83,2047,1,1,0,1
-1.828,295,1,1,0,1
-1.826,0,1,1,0,1
-1.824,380,1,1,0,1
-1.822,2047,1,1,0,1
-1.82,2047,1,1,0,1
-1.818,0,1,1,0,1
-1.816,948,1,1,0,1
-1.814,2047,1,1,0,1
-1.812,2047,1,1,0,1
-1.81,0,1,1,0,1
-1.808,0,1,1,0,1
-1.806,2047,1,1,0,1
-1.804,2047,1,1,0,1
-1.802,0,1,1,0,1
-1.8,0,1,1,0,1
-1.798,2047,1,1,0,1
-1.796,2047,1,1,0,1
-1.794,0,1,1,0,1
-1.792,0,1,1,0,1
-1.79,1423,1,1,0,1
-1.788,2047,1,1,0,1
-1.786,660,1,1,0,1
-1.784,0,1,1,0,1
-1.782,2047,1,1,0,1
-1.78,2047,1,1,0,1
-1.778,342,1,1,0,1
-1.776,0,1,1,0,1
-1.774,359,1,1,0,1
-1.772,2047,1,1,0,1
-1.77,2047,1,1,0,1
-1.768,0,1,1,0,1
-1.766,942,1,1,0,1
-1.764,2047,1,1,0,1
-1.762,2047,1,1,0,1
-1.76,0,1,1,0,1
-1.758,0,1,1,0,1
-1.756,2047,1,1,0,1
-1.754,2047,1,1,0,1
-1.752,0,1,1,0,1
-1.75,0,1,1,0,1
-1.748,2047,1,1,0,1
-1.746,2047,1,1,0,1
-1.744,0,1,1,0,1
-1.742,0,1,1,0,1
-1.74,1415,1,1,0,1
-1.738,2047,1,1,0,1
-1.736,716,1,1,0,1
-1.734,0,1,1,0,1
-1.732,2046,1,1,0,1
-1.73,2047,1,1,0,1
-1.728,402,1,1,0,1
-1.726,0,1,1,0,1
-1.724,328,1,1,0,1
-1.722,2047,1,1,0,1
-1.72,2047,1,1,0,1
-1.718,0,1,1,0,1
-1.716,876,1,1,0,1
-1.714,2047,1,1,0,1
-1.712,2047,1,1,0,1
-1.71,0,1,1,0,1
-1.708,0,1,1,0,1
-1.706,2047,1,1,0,1
-1.704,2047,1,1,0,1
-1.702,0,1,1,0,1
-1.7,0,1,1,0,1
-1.698,2047,1,1,0,1
-1.696,2047,1,1,0,1
-1.694,0,1,1,0,1
-1.692,0,1,1,0,1
-1.69,1398,1,1,0,1
-1.688,2047,1,1,0,1
-1.686,729,1,1,0,1
-1.684,0,1,1,0,1
-1.682,2031,1,1,0,1
-1.68,2047,1,1,0,1
-1.678,442,1,1,0,1
-1.676,0,1,1,0,1
-1.674,324,1,1,0,1
-1.672,2047,1,1,0,1
-1.67,2047,1,1,0,1
-1.668,0,1,1,0,1
-1.666,822,1,1,0,1
-1.664,2047,1,1,0,1
-1.662,2047,1,1,0,1
-1.66,0,1,1,0,1
-1.658,0,1,1,0,1
-1.656,2047,1,1,0,1
-1.654,2047,1,1,0,1
-1.652,0,1,1,0,1
-1.65,0,1,1,0,1
-1.648,2047,1,1,0,1
-1.646,2047,1,1,0,1
-1.644,0,1,1,0,1
-1.642,0,1,1,0,1
-1.64,1377,1,1,0,1
-1.638,2047,1,1,0,1
-1.636,750,1,1,0,1
-1.634,0,1,1,0,1
-1.632,1994,1,1,0,1
-1.63,2047,1,1,0,1
-1.628,495,1,1,0,1
-1.626,0,1,1,0,1
-1.624,297,1,1,0,1
-1.622,2047,1,1,0,1
-1.62,2047,1,1,0,1
-1.618,0,1,1,0,1
-1.616,782,1,1,0,1
-1.614,2047,1,1,0,1
-1.612,2047,1,1,0,1
-1.61,0,1,1,0,1
-1.608,0,1,1,0,1
-1.606,2047,1,1,0,1
-1.604,2047,1,1,0,1
-1.602,0,1,1,0,1
-1.6,0,1,1,0,1
-1.598,2047,1,1,0,1
-1.596,2047,1,1,0,1
-1.594,0,1,1,0,1
-1.592,0,1,1,0,1
-1.59,1361,1,1,0,1
-1.588,2047,1,1,0,1
-1.586,757,1,1,0,1
-1.584,0,1,1,0,1
-1.582,1971,1,1,0,1
-1.58,2047,1,1,0,1
-1.578,569,1,1,0,1
-1.576,0,1,1,0,1
-1.574,314,1,1,0,1
-1.572,2047,1,1,0,1
-1.57,2047,1,1,0,1
-1.568,0,1,1,0,1
-1.566,764,1,1,0,1
-1.564,2047,1,1,0,1
-1.562,2047,1,1,0,1
-1.56,0,1,1,0,1
-1.558,0,1,1,0,1
-1.556,2047,1,1,0,1
-1.554,2047,1,1,0,1
-1.552,0,1,1,0,1
-1.55,0,1,1,0,1
-1.548,2047,1,1,0,1
-1.546,2047,1,1,0,1
-1.544,0,1,1,0,1
-1.542,0,1,1,0,1
-1.54,1370,1,1,0,1
-1.538,2047,1,1,0,1
-1.536,800,1,1,0,1
-1.534,0,1,1,0,1
-1.532,1964,1,1,0,1
-1.53,2047,1,1,0,1
-1.528,633,1,1,0,1
-1.526,0,1,1,0,1
-1.524,291,1,1,0,1
-1.522,2047,1,1,0,1
-1.52,2047,1,1,0,1
-1.518,0,1,1,0,1
-1.516,736,1,1,0,1
-1.514,2047,1,1,0,1
-1.512,2047,1,1,0,1
-1.51,0,1,1,0,1
-1.508,0,1,1,0,1
-1.506,2047,1,1,0,1
-1.504,2047,1,1,0,1
-1.502,0,1,1,0,1
-1.5,0,1,1,0,1
-1.498,2047,1,1,0,1
-1.496,2047,1,1,0,1
-1.494,0,1,1,0,1
-1.492,0,1,1,0,1
-1.49,1331,1,1,0,1
-1.488,2047,1,1,0,1
-1.486,836,1,1,0,1
-1.484,0,1,1,0,1
-1.482,1897,1,1,0,1
-1.48,2047,1,1,0,1
-1.478,656,1,1,0,1
-1.476,0,1,1,0,1
-1.474,231,1,1,0,1
-1.472,2047,1,1,0,1
-1.47,2047,1,1,0,1
-1.468,0,1,1,0,1
-1.466,685,1,1,0,1
-1.464,2047,1,1,0,1
-1.462,2047,1,1,0,1
-1.46,0,1,1,0,1
-1.458,0,1,1,0,1
-1.456,2047,1,1,0,1
-1.454,2047,1,1,0,1
-1.452,0,1,1,0,1
-1.45,0,1,1,0,1
-1.448,2047,1,1,0,1
-1.446,2047,1,1,0,1
-1.444,0,1,1,0,1
-1.442,0,1,1,0,1
-1.44,1284,1,1,0,1
-1.438,2047,1,1,0,1
-1.436,974,1,1,0,1
-1.434,0,1,1,0,1
-1.432,1922,1,1,0,1
-1.43,2047,1,1,0,1
-1.428,724,1,1,0,1
-1.426,0,1,1,0,1
-1.424,225,1,1,0,1
-1.422,2047,1,1,0,1
-1.42,2047,1,1,0,1
-1.418,0,1,1,0,1
-1.416,711,1,1,0,1
-1.414,2047,1,1,0,1
-1.412,2047,1,1,0,1
-1.41,0,1,1,0,1
-1.408,0,1,1,0,1
-1.406,2047,1,1,0,1
-1.404,2047,1,1,0,1
-1.402,0,1,1,0,1
-1.4,0,1,1,0,1
-1.398,2047,1,1,0,1
-1.396,2047,1,1,0,1
-1.394,0,1,1,0,1
-1.392,0,1,1,0,1
-1.39,1519,1,1,0,1
-1.388,2047,1,1,0,1
-1.386,1369,1,1,0,1
-1.384,0,1,1,0,1
-1.382,2047,1,1,0,1
-1.38,2047,1,1,0,1
-1.378,1189,1,1,0,1
-1.376,0,1,1,0,1
-1.374,444,1,1,0,1
-1.372,2047,1,1,0,1
-1.37,2047,1,1,0,1
-1.368,0,1,1,0,1
-1.366,717,1,1,0,1
-1.364,2047,1,1,0,1
-1.362,2047,1,1,0,1
-1.36,0,1,1,0,1
-1.358,0,1,1,0,1
-1.356,1918,1,1,0,1
-1.354,2047,1,1,0,1
-1.352,0,1,1,0,1
-1.35,0,1,1,0,1
-1.348,2047,1,1,0,1
-1.346,2047,1,1,0,1
-1.344,0,1,1,0,1
-1.342,0,1,1,0,1
-1.34,945,1,1,0,1
-1.338,2047,1,1,0,1
-1.336,861,1,1,0,1
-1.334,0,1,1,0,1
-1.332,1657,1,1,0,1
-1.33,2047,1,1,0,1
-1.328,650,1,1,0,1
-1.326,0,1,1,0,1
-1.324,86,1,1,0,1
-1.322,2047,1,1,0,1
-1.32,2047,1,1,0,1
-1.318,0,1,1,0,1
-1.316,651,1,1,0,1
-1.314,2047,1,1,0,1
-1.312,2047,1,1,0,1
-1.31,0,1,1,0,1
-1.308,0,1,1,0,1
-1.306,2047,1,1,0,1
-1.304,2047,1,1,0,1
-1.302,0,1,1,0,1
-1.3,0,1,1,0,1
-1.298,2047,1,1,0,1
-1.296,2047,1,1,0,1
-1.294,0,1,1,0,1
-1.292,0,1,1,0,1
-1.29,1243,1,1,0,1
-1.288,2047,1,1,0,1
-1.286,1163,1,1,0,1
-1.284,0,1,1,0,1
-1.282,1893,1,1,0,1
-1.28,2047,1,1,0,1
-1.278,908,1,1,0,1
-1.276,0,1,1,0,1
-1.274,182,1,1,0,1
-1.272,2047,1,1,0,1
-1.27,2047,1,1,0,1
-1.268,0,1,1,0,1
-1.266,650,1,1,0,1
-1.264,2047,1,1,0,1
-1.262,2047,1,1,0,1
-1.26,0,1,1,0,1
-1.258,0,1,1,0,1
-1.256,2047,1,1,0,1
-1.254,2047,1,1,0,1
-1.252,0,1,1,0,1
-1.25,0,1,1,0,1
-1.248,2047,1,1,0,1
-1.246,2047,1,1,0,1
-1.244,0,1,1,0,1
-1.242,0,1,1,0,1
-1.24,1255,1,1,0,1
-1.238,2047,1,1,0,1
-1.236,1192,1,1,0,1
-1.234,0,1,1,0,1
-1.232,1845,1,1,0,1
-1.23,2047,1,1,0,1
-1.228,940,1,1,0,1
-1.226,0,1,1,0,1
-1.224,178,1,1,0,1
-1.222,2047,1,1,0,1
-1.22,2047,1,1,0,1
-1.218,0,1,1,0,1
-1.216,603,1,1,0,1
-1.214,2047,1,1,0,1
-1.212,2047,1,1,0,1
-1.21,0,1,1,0,1
-1.208,0,1,1,0,1
-1.206,2047,1,1,0,1
-1.204,2047,1,1,0,1
-1.202,0,1,1,0,1
-1.2,0,1,1,0,1
-1.198,2047,1,1,0,1
-1.196,2047,1,1,0,1
-1.194,0,1,1,0,1
-1.192,0,1,1,0,1
-1.19,1234,1,1,0,1
-1.188,2047,1,1,0,1
-1.186,1220,1,1,0,1
-1.184,0,1,1,0,1
-1.182,1830,1,1,0,1
-1.18,2047,1,1,0,1
-1.178,1014,1,1,0,1
-1.176,0,1,1,0,1
-1.174,162,1,1,0,1
-1.172,2047,1,1,0,1
-1.17,2047,1,1,0,1
-1.168,0,1,1,0,1
-1.166,567,1,1,0,1
-1.164,2047,1,1,0,1
-1.162,2047,1,1,0,1
-1.16,0,1,1,0,1
-1.158,0,1,1,0,1
-1.156,2047,1,1,0,1
-1.154,2047,1,1,0,1
-1.152,0,1,1,0,1
-1.15,0,1,1,0,1
-1.148,2047,1,1,0,1
-1.146,2047,1,1,0,1
-1.144,0,1,1,0,1
-1.142,0,1,1,0,1
-1.14,1229,1,1,0,1
-1.138,2047,1,1,0,1
-1.136,1249,1,1,0,1
-1.134,0,1,1,0,1
-1.132,1813,1,1,0,1
-1.13,2047,1,1,0,1
-1.128,1072,1,1,0,1
-1.126,0,1,1,0,1
-1.124,155,1,1,0,1
-1.122,2047,1,1,0,1
-1.12,2047,1,1,0,1
-1.118,0,1,1,0,1
-1.116,518,1,1,0,1
-1.114,2047,1,1,0,1
-1.112,2047,1,1,0,1
-1.11,0,1,1,0,1
-1.108,0,1,1,0,1
-1.106,2047,1,1,0,1
-1.104,2047,1,1,0,1
-1.102,0,1,1,0,1
-1.1,0,1,1,0,1
-1.098,2047,1,1,0,1
-1.096,2047,1,1,0,1
-1.094,0,1,1,0,1
-1.092,0,1,1,0,1
-1.09,1191,1,1,0,1
-1.088,2047,1,1,0,1
-1.086,1266,1,1,0,1
-1.084,0,1,1,0,1
-1.082,1756,1,1,0,1
-1.08,2047,1,1,0,1
-1.078,1081,1,1,0,1
-1.076,0,1,1,0,1
-1.074,97,1,1,0,1
-1.072,2047,1,1,0,1
-1.07,2047,1,1,0,1
-1.068,0,1,1,0,1
-1.066,484,1,1,0,1
-1.064,2047,1,1,0,1
-1.062,2047,1,1,0,1
-1.06,0,1,1,0,1
-1.058,0,1,1,0,1
-1.056,2047,1,1,0,1
-1.054,2047,1,1,0,1
-1.052,0,1,1,0,1
-1.05,0,1,1,0,1
-1.048,2047,1,1,0,1
-1.046,2047,1,1,0,1
-1.044,0,1,1,0,1
-1.042,0,1,1,0,1
-1.04,1061,1,1,0,1
-1.038,2047,1,1,0,1
-1.036,1316,1,1,0,1
-1.034,0,1,1,0,1
-1.032,1659,1,1,0,1
-1.03,2047,1,1,0,1
-1.028,1048,1,1,0,1
-1.026,0,1,1,0,1
-1.024,0,1,1,0,1
-1.022,2047,1,1,0,1
-1.02,2047,1,1,0,1
-1.018,0,1,1,0,1
-1.016,438,1,1,0,1
-1.014,2047,1,1,0,1
-1.012,2047,1,1,0,1
-1.01,0,1,1,0,1
-1.008,0,1,1,0,1
-1.006,2047,1,1,0,1
-1.004,2047,1,1,0,1
-1.002,0,1,1,0,1
-1,0,1,1,0,1
-0.998,2047,1,1,0,1
-0.996,2047,1,1,0,1
-0.994,0,1,1,0,1
-0.992,0,1,1,0,1
-0.99,1020,1,1,0,1
-0.988,2047,1,1,0,1
-0.986,1420,1,1,0,1
-0.984,0,1,1,0,1
-0.982,1655,1,1,0,1
-0.98,2047,1,1,0,1
-0.978,1085,1,1,0,1
-0.976,0,1,1,0,1
-0.974,0,1,1,0,1
-0.972,2047,1,1,0,1
-0.97,2047,1,1,0,1
-0.968,0,1,1,0,1
-0.966,435,1,1,0,1
-0.964,2047,1,1,0,1
-0.962,2047,1,1,0,1
-0.96,0,1,1,0,1
-0.958,0,1,1,0,1
-0.956,2037,1,1,0,1
-0.954,2047,1,1,0,1
-0.952,0,1,1,0,1
-0.95,0,1,1,0,1
-0.948,2047,1,1,0,1
-0.946,2047,1,1,0,1
-0.944,0,1,1,0,1
-0.9419999999999999,0,1,1,0,1
-0.9399999999999999,997,1,1,0,1
-0.9379999999999999,2047,1,1,0,1
-0.9360000000000001,1489,1,1,0,1
-0.9340000000000001,0,1,1,0,1
-0.9320000000000001,1657,1,1,0,1
-0.93,2047,1,1,0,1
-0.928,1167,1,1,0,1
-0.926,0,1,1,0,1
-0.924,0,1,1,0,1
-0.922,2047,1,1,0,1
-0.92,2047,1,1,0,1
-0.918,0,1,1,0,1
-0.916,394,1,1,0,1
-0.914,2047,1,1,0,1
-0.912,2047,1,1,0,1
-0.91,0,1,1,0,1
-0.908,0,1,1,0,1
-0.906,2029,1,1,0,1
-0.904,2047,1,1,0,1
-0.902,0,1,1,0,1
-0.9,0,1,1,0,1
-0.898,2047,1,1,0,1
-0.896,2047,1,1,0,1
-0.894,0,1,1,0,1
-0.892,0,1,1,0,1
-0.89,948,1,1,0,1
-0.888,2047,1,1,0,1
-0.886,1481,1,1,0,1
-0.884,0,1,1,0,1
-0.882,1591,1,1,0,1
-0.88,2047,1,1,0,1
-0.878,1197,1,1,0,1
-0.876,0,1,1,0,1
-0.874,0,1,1,0,1
-0.872,2047,1,1,0,1
-0.87,2047,1,1,0,1
-0.868,0,1,1,0,1
-0.866,342,1,1,0,1
-0.864,2047,1,1,0,1
-0.862,2047,1,1,0,1
-0.86,0,1,1,0,1
-0.858,0,1,1,0,1
-0.856,2001,1,1,0,1
-0.854,2047,1,1,0,1
-0.852,0,1,1,0,1
-0.85,0,1,1,0,1
-0.848,2047,1,1,0,1
-0.846,2047,1,1,0,1
-0.844,0,1,1,0,1
-0.842,0,1,1,0,1
-0.84,947,1,1,0,1
-0.838,2047,1,1,0,1
-0.836,1506,1,1,0,1
-0.834,0,1,1,0,1
-0.832,1558,1,1,0,1
-0.83,2047,1,1,0,1
-0.828,1261,1,1,0,1
-0.826,0,1,1,0,1
-0.824,0,1,1,0,1
-0.822,2047,1,1,0,1
-0.82,2047,1,1,0,1
-0.8179999999999999,0,1,1,0,1
-0.8159999999999999,310,1,1,0,1
-0.8139999999999999,2047,1,1,0,1
-0.8120000000000001,2047,1,1,0,1
-0.8100000000000001,0,1,1,0,1
-0.8080000000000001,0,1,1,0,1
-0.806,1999,1,1,0,1
-0.804,2047,1,1,0,1
-0.802,0,1,1,0,1
-0.8,0,1,1,0,1
-0.798,2047,1,1,0,1
-0.796,2047,1,1,0,1
-0.794,0,1,1,0,1
-0.792,0,1,1,0,1
-0.79,929,1,1,0,1
-0.788,2047,1,1,0,1
-0.786,1517,1,1,0,1
-0.784,0,1,1,0,1
-0.782,1503,1,1,0,1
-0.78,2047,1,1,0,1
-0.778,1330,1,1,0,1
-0.776,0,1,1,0,1
-0.774,0,1,1,0,1
-0.772,2047,1,1,0,1
-0.77,2047,1,1,0,1
-0.768,0,1,1,0,1
-0.766,282,1,1,0,1
-0.764,2047,1,1,0,1
-0.762,2047,1,1,0,1
-0.76,0,1,1,0,1
-0.758,0,1,1,0,1
-0.756,1979,1,1,0,1
-0.754,2047,1,1,0,1
-0.752,0,1,1,0,1
-0.75,0,1,1,0,1
-0.748,2047,1,1,0,1
-0.746,2047,1,1,0,1
-0.744,0,1,1,0,1
-0.742,0,1,1,0,1
-0.74,926,1,1,0,1
-0.738,2047,1,1,0,1
-0.736,1521,1,1,0,1
-0.734,0,1,1,0,1
-0.732,1483,1,1,0,1
-0.73,2047,1,1,0,1
-0.728,1391,1,1,0,1
-0.726,0,1,1,0,1
-0.724,0,1,1,0,1
-0.722,2047,1,1,0,1
-0.72,2047,1,1,0,1
-0.718,0,1,1,0,1
-0.716,225,1,1,0,1
-0.714,2047,1,1,0,1
-0.712,2047,1,1,0,1
-0.71,0,1,1,0,1
-0.708,0,1,1,0,1
-0.706,1979,1,1,0,1
-0.704,2047,1,1,0,1
-0.702,0,1,1,0,1
-0.7,0,1,1,0,1
-0.698,2047,1,1,0,1
-0.696,2047,1,1,0,1
-0.694,0,1,1,0,1
-0.6919999999999999,0,1,1,0,1
-0.6899999999999999,909,1,1,0,1
-0.6879999999999999,2047,1,1,0,1
-0.6860000000000001,1555,1,1,0,1
-0.6840000000000001,0,1,1,0,1
-0.6820000000000001,1438,1,1,0,1
-0.68,2047,1,1,0,1
-0.678,1423,1,1,0,1
-0.676,0,1,1,0,1
-0.674,0,1,1,0,1
-0.672,2047,1,1,0,1
-0.67,2047,1,1,0,1
-0.668,0,1,1,0,1
-0.666,212,1,1,0,1
-0.664,2047,1,1,0,1
-0.662,2047,1,1,0,1
-0.66,0,1,1,0,1
-0.658,0,1,1,0,1
-0.656,1949,1,1,0,1
-0.654,2047,1,1,0,1
-0.652,0,1,1,0,1
-0.65,0,1,1,0,1
-0.648,2047,1,1,0,1
-0.646,2047,1,1,0,1
-0.644,0,1,1,0,1
-0.642,0,1,1,0,1
-0.64,911,1,1,0,1
-0.638,2047,1,1,0,1
-0.636,1687,1,1,0,1
-0.634,0,1,1,0,1
-0.632,1460,1,1,0,1
-0.63,2047,1,1,0,1
-0.628,1483,1,1,0,1
-0.626,0,1,1,0,1
-0.624,0,1,1,0,1
-0.622,2047,1,1,0,1
-0.62,2047,1,1,0,1
-0.618,0,1,1,0,1
-0.616,247,1,1,0,1
-0.614,2047,1,1,0,1
-0.612,2047,1,1,0,1
-0.61,0,1,1,0,1
-0.608,0,1,1,0,1
-0.606,1975,1,1,0,1
-0.604,2047,1,1,0,1
-0.602,0,1,1,0,1
-0.6,0,1,1,0,1
-0.598,2047,1,1,0,1
-0.596,2047,1,1,0,1
-0.594,0,1,1,0,1
-0.592,0,1,1,0,1
-0.59,887,1,1,0,1
-0.588,2047,1,1,0,1
-0.586,1795,1,1,0,1
-0.584,0,1,1,0,1
-0.582,1498,1,1,0,1
-0.58,2047,1,1,0,1
-0.578,1549,1,1,0,1
-0.576,0,1,1,0,1
-0.574,0,1,1,0,1
-0.572,2047,1,1,0,1
-0.57,2047,1,1,0,1
-0.5679999999999999,0,1,1,0,1
-0.5659999999999999,231,1,1,0,1
-0.5639999999999999,2047,1,1,0,1
-0.5620000000000001,2047,1,1,0,1
-0.5600000000000001,0,1,1,0,1
-0.5580000000000001,0,1,1,0,1
-0.556,1898,1,1,0,1
-0.554,2047,1,1,0,1
-0.552,0,1,1,0,1
-0.55,0,1,1,0,1
-0.548,2047,1,1,0,1
-0.546,2047,1,1,0,1
-0.544,0,1,1,0,1
-0.542,0,1,1,0,1
-0.54,787,1,1,0,1
-0.538,2047,1,1,0,1
-0.536,1787,1,1,0,1
-0.534,0,1,1,0,1
-0.532,1398,1,1,0,1
-0.53,2047,1,1,0,1
-0.528,1526,1,1,0,1
-0.526,0,1,1,0,1
-0.524,0,1,1,0,1
-0.522,2047,1,1,0,1
-0.52,2047,1,1,0,1
-0.518,0,1,1,0,1
-0.516,187,1,1,0,1
-0.514,2047,1,1,0,1
-0.512,2047,1,1,0,1
-0.51,0,1,1,0,1
-0.508,0,1,1,0,1
-0.506,1847,1,1,0,1
-0.504,2047,1,1,0,1
-0.502,0,1,1,0,1
-0.5,0,1,1,0,1
-0.498,2047,1,1,0,1
-0.496,2047,1,1,0,1
-0.494,0,1,1,0,1
-0.492,0,1,1,0,1
-0.49,809,1,1,0,1
-0.488,2047,1,1,0,1
-0.486,1925,1,1,0,1
-0.484,0,1,1,0,1
-0.482,1578,1,1,0,1
-0.48,2047,1,1,0,1
-0.478,1830,1,1,0,1
-0.476,0,1,1,0,1
-0.474,79,1,1,0,1
-0.472,2047,1,1,0,1
-0.47,2047,1,1,0,1
-0.468,0,1,1,0,1
-0.466,394,1,1,0,1
-0.464,2047,1,1,0,1
-0.462,2047,1,1,0,1
-0.46,0,1,1,0,1
-0.458,0,1,1,0,1
-0.456,1740,1,1,0,1
-0.454,2047,1,1,0,1
-0.452,0,1,1,0,1
-0.45,0,1,1,0,1
-0.448,2047,1,1,0,1
-0.446,2047,1,1,0,1
-0.444,0,1,1,0,1
-0.442,0,1,1,0,1
-0.44,429,1,1,0,1
-0.438,2047,1,1,0,1
-0.436,1587,1,1,0,1
-0.434,0,1,1,0,1
-0.432,1020,1,1,0,1
-0.43,2047,1,1,0,1
-0.428,1387,1,1,0,1
-0.426,0,1,1,0,1
-0.424,0,1,1,0,1
-0.422,2047,1,1,0,1
-0.42,2047,1,1,0,1
-0.418,0,1,1,0,1
-0.416,0,1,1,0,1
-0.414,2047,1,1,0,1
-0.412,2047,1,1,0,1
-0.41,0,1,1,0,1
-0.408,0,1,1,0,1
-0.406,1788,1,1,0,1
-0.404,2047,1,1,0,1
-0.402,4,1,1,0,1
-0.4,0,1,1,0,1
-0.398,2047,1,1,0,1
-0.396,2047,1,1,0,1
-0.394,0,1,1,0,1
-0.392,0,1,1,0,1
-0.39,767,1,1,0,1
-0.388,2047,1,1,0,1
-0.386,1931,1,1,0,1
-0.384,0,1,1,0,1
-0.382,1323,1,1,0,1
-0.38,2047,1,1,0,1
-0.378,1693,1,1,0,1
-0.376,0,1,1,0,1
-0.374,0,1,1,0,1
-0.372,2047,1,1,0,1
-0.37,2047,1,1,0,1
-0.368,0,1,1,0,1
-0.366,117,1,1,0,1
-0.364,2047,1,1,0,1
-0.362,2047,1,1,0,1
-0.36,0,1,1,0,1
-0.358,0,1,1,0,1
-0.356,1839,1,1,0,1
-0.354,2047,1,1,0,1
-0.352,68,1,1,0,1
-0.35,0,1,1,0,1
-0.348,2047,1,1,0,1
-0.346,2047,1,1,0,1
-0.344,0,1,1,0,1
-0.342,0,1,1,0,1
-0.34,750,1,1,0,1
-0.338,2047,1,1,0,1
-0.336,1949,1,1,0,1
-0.334,0,1,1,0,1
-0.332,1303,1,1,0,1
-0.33,2047,1,1,0,1
-0.328,1759,1,1,0,1
-0.326,0,1,1,0,1
-0.324,0,1,1,0,1
-0.322,2047,1,1,0,1
-0.32,2047,1,1,0,1
-0.318,0,1,1,0,1
-0.316,97,1,1,0,1
-0.314,2047,1,1,0,1
-0.312,2047,1,1,0,1
-0.31,0,1,1,0,1
-0.308,0,1,1,0,1
-0.306,1827,1,1,0,1
-0.304,2047,1,1,0,1
-0.302,70,1,1,0,1
-0.3,0,1,1,0,1
-0.298,2047,1,1,0,1
-0.296,2047,1,1,0,1
-0.294,0,1,1,0,1
-0.292,0,1,1,0,1
-0.29,739,1,1,0,1
-0.288,2047,1,1,0,1
-0.286,1948,1,1,0,1
-0.284,0,1,1,0,1
-0.282,1257,1,1,0,1
-0.28,2047,1,1,0,1
-0.278,1798,1,1,0,1
-0.276,0,1,1,0,1
-0.274,0,1,1,0,1
-0.272,2047,1,1,0,1
-0.27,2047,1,1,0,1
-0.268,0,1,1,0,1
-0.266,59,1,1,0,1
-0.264,2047,1,1,0,1
-0.262,2047,1,1,0,1
-0.26,0,1,1,0,1
-0.258,0,1,1,0,1
-0.256,1831,1,1,0,1
-0.254,2047,1,1,0,1
-0.252,186,1,1,0,1
-0.25,0,1,1,0,1
-0.248,2047,1,1,0,1
-0.246,2047,1,1,0,1
-0.244,3,1,1,0,1
-0.242,0,1,1,0,1
-0.24,747,1,1,0,1
-0.238,2047,1,1,0,1
-0.236,2047,1,1,0,1
-0.234,0,1,1,0,1
-0.232,1310,1,1,0,1
-0.23,2047,1,1,0,1
-0.228,1865,1,1,0,1
-0.226,0,1,1,0,1
-0.224,0,1,1,0,1
-0.222,2047,1,1,0,1
-0.22,2047,1,1,0,1
-0.218,0,1,1,0,1
-0.216,114,1,1,0,1
-0.214,2047,1,1,0,1
-0.212,2047,1,1,0,1
-0.21,0,1,1,0,1
-0.208,0,1,1,0,1
-0.206,1826,1,1,0,1
-0.204,2047,1,1,0,1
-0.202,323,1,1,0,1
-0.2,0,1,1,0,1
-0.198,2047,1,1,0,1
-0.196,2047,1,1,0,1
-0.194,50,1,1,0,1
-0.192,0,1,1,0,1
-0.19,687,1,1,0,1
-0.188,2047,1,1,0,1
-0.186,2047,1,1,0,1
-0.184,0,1,1,0,1
-0.182,1291,1,1,0,1
-0.18,2047,1,1,0,1
-0.178,1916,1,1,0,1
-0.176,0,1,1,0,1
-0.174,0,1,1,0,1
-0.172,2047,1,1,0,1
-0.17,2047,1,1,0,1
-0.168,0,1,1,0,1
-0.166,47,1,1,0,1
-0.164,2047,1,1,0,1
-0.162,2047,1,1,0,1
-0.16,0,1,1,0,1
-0.158,0,1,1,0,1
-0.156,1695,1,1,0,1
-0.154,2047,1,1,0,1
-0.152,320,1,1,0,1
-0.15,0,1,1,0,1
-0.148,2047,1,1,0,1
-0.146,2047,1,1,0,1
-0.144,21,1,1,0,1
-0.142,0,1,1,0,1
-0.14,578,1,1,0,1
-0.138,2047,1,1,0,1
-0.136,2047,1,1,0,1
-0.134,0,1,1,0,1
-0.132,1171,1,1,0,1
-0.13,2047,1,1,0,1
-0.128,1862,1,1,0,1
-0.126,0,1,1,0,1
-0.124,0,1,1,0,1
-0.122,2047,1,1,0,1
-0.12,2047,1,1,0,1
-0.118,0,1,1,0,1
-0.116,0,1,1,0,1
-0.114,2047,1,1,0,1
-0.112,2047,1,1,0,1
-0.11,0,1,1,0,1
-0.108,0,1,1,0,1
-0.106,1595,1,1,0,1
-0.104,2047,1,1,0,1
-0.102,317,1,1,0,1
-0.1,0,1,1,0,1
-0.098,2047,1,1,0,1
-0.096,2047,1,1,0,1
-0.094,1,1,1,0,1
-0.092,0,1,1,0,1
-0.09,488,1,1,0,1
-0.08799999999999999,2047,1,1,0,1
-0.08599999999999999,2047,1,1,0,1
-0.08400000000000001,0,1,1,0,1
-0.082,1086,1,1,0,1
-0.08,2047,1,1,0,1
-0.078,1854,1,1,0,1
-0.076,0,1,1,0,1
-0.074,0,1,1,0,1
-0.07199999999999999,2047,1,1,0,1
-0.07000000000000001,2047,1,1,0,1
-0.068,0,1,1,0,1
-0.066,0,1,1,0,1
-0.064,2047,1,1,0,1
-0.062,2047,1,1,0,1
-0.06,0,1,1,0,1
-0.058,0,1,1,0,1
-0.056,1579,1,1,0,1
-0.054,2047,1,1,0,1
-0.052,311,1,1,0,1
-0.05,0,1,1,0,1
-0.048,2047,1,1,0,1
-0.046,2047,1,1,0,1
-0.044,49,1,1,0,1
-0.042,0,1,1,0,1
-0.04,504,1,1,0,1
-0.038,2047,1,1,0,1
-0.036,2047,1,1,0,1
-0.034,0,1,1,0,1
-0.032,1044,1,1,0,1
-0.03,2047,1,1,0,1
-0.028,1912,1,1,0,1
-0.026,0,1,1,0,1
-0.024,0,1,1,0,1
-0.022,2047,1,1,0,1
-0.02,2047,1,1,0,1
-0.018,0,1,1,0,1
-0.016,0,1,1,0,1
-0.014,2047,1,1,0,1
-0.012,2047,1,1,0,1
-0.01,0,1,1,0,1
-0.008,0,1,1,0,1
-0.006,1589,1,1,0,1
-0.004,2047,1,1,0,1
-0.002,360,1,1,0,1
0,0,1,1,0,1
0.002,2047,1,1,0,1
0.004,2047,1,1,0,1
0.006,102,1,1,0,1
0.008,0,1,1,0,1
0.01,474,1,1,0,1
0.012,2047,1,1,0,1
0.014,2047,1,1,0,1
0.016,0,1,1,0,1
0.018,1015,1,1,0,1
0.02,2047,1,1,0,1
0.022,2002,1,1,0,1
0.024,0,1,1,0,1
0.026,0,1,1,0,1
0.028,2047,1,1,0,1
0.03,2047,1,1,0,1
0.032,0,1,1,0,1
0.034,0,1,1,0,1
0.036,2047,1,1,0,1
0.038,2047,1,1,0,1
0.04,0,1,1,0,1
0.042,0,1,1,0,1
0.044,1549,1,1,0,1
0.046,2047,1,1,0,1
0.048,365,1,1,0,1
0.05,0,1,1,0,1
0.052,2047,1,1,0,1
0.054,2047,1,1,0,1
0.056,160,1,1,0,1
0.058,0,1,1,0,1
0.06,490,1,1,0,1
0.062,2047,1,1,0,1
0.064,2047,1,1,0,1
0.066,0,1,1,0,1
0.068,975,1,1,0,1
0.07000000000000001,2047,1,1,0,1
0.07199999999999999,2047,1,1,0,1
0.074,0,1,1,0,1
0.076,0,1,1,0,1
0.078,2047,1,1,0,1
0.08,2047,1,1,0,1
0.082,0,1,1,0,1
0.08400000000000001,0,1,1,0,1
0.08599999999999999,2047,1,1,0,1
0.08799999999999999,2047,1,1,0,1
0.09,0,1,1,0,1
0.092,0,1,1,0,1
0.094,1557,1,1,0,1
0.096,2047,1,1,0,1
0.098,398,1,1,0,1
0.1,0,1,1,0,1
0.102,2047,1,1,0,1
0.104,2047,1,1,0,1
0.106,197,1,1,0,1
0.108,0,1,1,0,1
0.11,467,1,1,0,1
0.112,2047,1,1,0,1
0.114,2047,1,1,0,1
0.116,0,1,1,0,1
0.118,944,1,1,0,1
0.12,2047,1,1,0,1
0.122,2047,1,1,0,1
0.124,0,1,1,0,1
0.126,0,1,1,0,1
0.128,2047,1,1,0,1
0.13,2047,1,1,0,1
0.132,0,1,1,0,1
0.134,0,1,1,0,1
0.136,2047,1,1,0,1
0.138,2047,1,1,0,1
0.14,0,1,1,0,1
0.142,0,1,1,0,1
0.144,1549,1,1,0,1
0.146,2047,1,1,0,1
0.148,465,1,1,0,1
0.15,0,1,1,0,1
0.152,2047,1,1,0,1
0.154,2047,1,1,0,1
0.156,293,1,1,0,1
0.158,0,1,1,0,1
0.16,488,1,1,0,1
0.162,2047,1,1,0,1
0.164,2047,1,1,0,1
0.166,0,1,1,0,1
0.168,986,1,1,0,1
0.17,2047,1,1,0,1
0.172,2047,1,1,0,1
0.174,0,1,1,0,1
0.176,0,1,1,0,1
0.178,2047,1,1,0,1
0.18,2047,1,1,0,1
0.182,0,1,1,0,1
0.184,0,1,1,0,1
0.186,2047,1,1,0,1
0.188,2047,1,1,0,1
0.19,0,1,1,0,1
0.192,0,1,1,0,1
0.194,1500,1,1,0,1
0.196,2047,1,1,0,1
0.198,735,1,1,0,1
0.2,0,1,1,0,1
0.202,2047,1,1,0,1
0.204,2047,1,1,0,1
0.206,441,1,1,0,1
0.208,0,1,1,0,1
0.21,394,1,1,0,1
0.212,2047,1,1,0,1
0.214,2047,1,1,0,1
0.216,0,1,1,0,1
0.218,970,1,1,0,1
0.22,2047,1,1,0,1
0.222,2047,1,1,0,1
0.224,0,1,1,0,1
0.226,0,1,1,0,1
0.228,2047,1,1,0,1
0.23,2047,1,1,0,1
0.232,0,1,1,0,1
0.234,0,1,1,0,1
0.236,2047,1,1,0,1
0.238,2047,1,1,0,1
0.24,0,1,1,0,1
0.242,0,1,1,0,1
0.244,1454,1,1,0,1
0.246,2047,1,1,0,1
0.248,827,1,1,0,1
0.25,0,1,1,0,1
0.252,2047,1,1,0,1
0.254,2047,1,1,0,1
0.256,501,1,1,0,1
0.258,0,1,1,0,1
0.26,362,1,1,0,1
0.262,2047,1,1,0,1
0.264,2047,1,1,0,1
0.266,0,1,1,0,1
0.268,959,1,1,0,1
0.27,2047,1,1,0,1
0.272,2047,1,1,0,1
0.274,0,1,1,0,1
0.276,0,1,1,0,1
0.278,2047,1,1,0,1
0.28,2047,1,1,0,1
0.282,0,1,1,0,1
0.284,0,1,1,0,1
0.286,2047,1,1,0,1
0.288,2047,1,1,0,1
0.29,0,1,1,0,1
0.292,0,1,1,0,1
0.294,1412,1,1,0,1
0.296,2047,1,1,0,1
0.298,872,1,1,0,1
0.3,0,1,1,0,1
0.302,2047,1,1,0,1
0.304,2047,1,1,0,1
0.306,537,1,1,0,1
0.308,0,1,1,0,1
0.31,320,1,1,0,1
0.312,2047,1,1,0,1
0.314,2047,1,1,0,1
0.316,0,1,1,0,1
0.318,865,1,1,0,1
0.32,2047,1,1,0,1
0.322,2047,1,1,0,1
0.324,0,1,1,0,1
0.326,0,1,1,0,1
0.328,2047,1,1,0,1
0.33,2047,1,1,0,1
0.332,0,1,1,0,1
0.334,0,1,1,0,1
0.336,2047,1,1,0,1
0.338,2047,1,1,0,1
0.34,0,1,1,0,1
0.342,0,1,1,0,1
0.344,1333,1,1,0,1
0.346,2047,1,1,0,1
0.348,827,1,1,0,1
0.35,0,1,1,0,1
0.352,2007,1,1,0,1
0.354,2047,1,1,0,1
0.356,544,1,1,0,1
0.358,0,1,1,0,1
0.36,252,1,1,0,1
0.362,2047,1,1,0,1
0.364,2047,1,1,0,1
0.366,0,1,1,0,1
0.368,812,1,1,0,1
0.37,2047,1,1,0,1
0.372,2047,1,1,0,1
0.374,0,1,1,0,1
0.376,0,1,1,0,1
0.378,2047,1,1,0,1
0.38,2047,1,1,0,1
0.382,0,1,1,0,1
0.384,0,1,1,0,1
0.386,2047,1,1,0,1
0.388,2047,1,1,0,1
0.39,0,1,1,0,1
0.392,0,1,1,0,1
0.394,1332,1,1,0,1
0.396,2047,1,1,0,1
0.398,866,1,1,0,1
0.4,0,1,1,0,1
0.402,2043,1,1,0,1
0.404,2047,1,1,0,1
0.406,751,1,1,0,1
0.408,0,1,1,0,1
0.41,491,1,1,0,1
0.412,2047,1,1,0,1
0.414,2047,1,1,0,1
0.416,0,1,1,0,1
0.418,1179,1,1,0,1
0.42,2047,1,1,0,1
0.422,2047,1,1,0,1
0.424,0,1,1,0,1
0.426,0,1,1,0,1
0.428,2047,1,1,0,1
0.43,2047,1,1,0,1
0.432,0,1,1,0,1
0.434,0,1,1,0,1
0.436,2047,1,1,0,1
0.438,2047,1,1,0,1
0.44,0,1,1,0,1
0.442,0,1,1,0,1
0.444,953,1,1,0,1
0.446,2047,1,1,0,1
0.448,525,1,1,0,1
0.45,0,1,1,0,1
0.452,1609,1,1,0,1
0.454,2047,1,1,0,1
0.456,364,1,1,0,1
0.458,0,1,1,0,1
0.46,0,1,1,0,1
0.462,2047,1,1,0,1
0.464,2047,1,1,0,1
0.466,0,1,1,0,1
0.468,562,1,1,0,1
0.47,2047,1,1,0,1
0.472,2047,1,1,0,1
0.474,0,1,1,0,1
0.476,0,1,1,0,1
0.478,2047,1,1,0,1
0.48,2047,1,1,0,1
0.482,0,1,1,0,1
0.484,0,1,1,0,1
0.486,2047,1,1,0,1
0.488,2047,1,1,0,1
0.49,0,1,1,0,1
0.492,0,1,1,0,1
0.494,1318,1,1,0,1
0.496,2047,1,1,0,1
0.498,918,1,1,0,1
0.5,0,1,1,0,1
0.502,1961,1,1,0,1
0.504,2047,1,1,0,1
0.506,747,1,1,0,1
0.508,0,1,1,0,1
0.51,246,1,1,0,1
0.512,2047,1,1,0,1
0.514,2047,1,1,0,1
0.516,0,1,1,0,1
0.518,731,1,1,0,1
0.52,2047,1,1,0,1
0.522,2047,1,1,0,1
0.524,0,1,1,0,1
0.526,0,1,1,0,1
0.528,2047,1,1,0,1
0.53,2047,1,1,0,1
0.532,0,1,1,0,1
0.534,0,1,1,0,1
0.536,2047,1,1,0,1
0.538,2047,1,1,0,1
0.54,0,1,1,0,1
0.542,0,1,1,0,1
0.544,1313,1,1,0,1
0.546,2047,1,1,0,1
0.548,966,1,1,0,1
0.55,0,1,1,0,1
0.552,1945,1,1,0,1
0.554,2047,1,1,0,1
0.556,811,1,1,0,1
0.5580000000000001,0,1,1,0,1
0.5600000000000001,258,1,1,0,1
0.5620000000000001,2047,1,1,0,1
0.5639999999999999,2047,1,1,0,1
0.5659999999999999,0,1,1,0,1
0.5679999999999999,749,1,1,0,1
0.57,2047,1,1,0,1
0.572,2047,1,1,0,1
0.574,0,1,1,0,1
0.576,0,1,1,0,1
0.578,2047,1,1,0,1
0.58,2047,1,1,0,1
0.582,0,1,1,0,1
0.584,0,1,1,0,1
0.586,2047,1,1,0,1
0.588,2047,1,1,0,1
0.59,0,1,1,0,1
0.592,0,1,1,0,1
0.594,1337,1,1,0,1
0.596,2047,1,1,0,1
0.598,1130,1,1,0,1
0.6,0,1,1,0,1
0.602,1959,1,1,0,1
0.604,2047,1,1,0,1
0.606,868,1,1,0,1
0.608,0,1,1,0,1
0.61,242,1,1,0,1
0.612,2047,1,1,0,1
0.614,2047,1,1,0,1
0.616,0,1,1,0,1
0.618,734,1,1,0,1
0.62,2047,1,1,0,1
0.622,2047,1,1,0,1
0.624,0,1,1,0,1
0.626,0,1,1,0,1
0.628,2047,1,1,0,1
0.63,2047,1,1,0,1
0.632,0,1,1,0,1
0.634,0,1,1,0,1
0.636,2047,1,1,0,1
0.638,2047,1,1,0,1
0.64,0,1,1,0,1
0.642,0,1,1,0,1
0.644,1319,1,1,0,1
0.646,2047,1,1,0,1
0.648,1243,1,1,0,1
0.65,0,1,1,0,1
0.652,1995,1,1,0,1
0.654,2047,1,1,0,1
0.656,928,1,1,0,1
0.658,0,1,1,0,1
0.66,223,1,1,0,1
0.662,2047,1,1,0,1
0.664,2047,1,1,0,1
0.666,0,1,1,0,1
0.668,745,1,1,0,1
0.67,2047,1,1,0,1
0.672,2047,1,1,0,1
0.674,0,1,1,0,1
0.676,0,1,1,0,1
0.678,2047,1,1,0,1
0.68,2047,1,1,0,1
0.6820000000000001,0,1,1,0,1
0.6840000000000001,0,1,1,0,1
0.6860000000000001,2047,1,1,0,1
0.6879999999999999,2047,1,1,0,1
0.6899999999999999,0,1,1,0,1
0.6919999999999999,0,1,1,0,1
0.694,1270,1,1,0,1
0.696,2047,1,1,0,1
0.698,1271,1,1,0,1
0.7,0,1,1,0,1
0.702,1931,1,1,0,1
0.704,2047,1,1,0,1
0.706,932,1,1,0,1
0.708,0,1,1,0,1
0.71,164,1,1,0,1
0.712,2047,1,1,0,1
0.714,2047,1,1,0,1
0.716,0,1,1,0,1
0.718,654,1,1,0,1
0.72,2047,1,1,0,1
0.722,2047,1,1,0,1
0.724,0,1,1,0,1
0.726,0,1,1,0,1
0.728,2047,1,1,0,1
0.73,2047,1,1,0,1
0.732,0,1,1,0,1
0.734,0,1,1,0,1
0.736,2047,1,1,0,1
0.738,2047,1,1,0,1
0.74,0,1,1,0,1
0.742,0,1,1,0,1
0.744,1156,1,1,0,1
0.746,2047,1,1,0,1
0.748,1196,1,1,0,1
0.75,0,1,1,0,1
0.752,1746,1,1,0,1
0.754,2047,1,1,0,1
0.756,838,1,1,0,1
0.758,0,1,1,0,1
0.76,2,1,1,0,1
0.762,2047,1,1,0,1
0.764,2047,1,1,0,1
0.766,0,1,1,0,1
0.768,490,1,1,0,1
0.77,2047,1,1,0,1
0.772,2047,1,1,0,1
0.774,0,1,1,0,1
0.776,0,1,1,0,1
0.778,2047,1,1,0,1
0.78,2047,1,1,0,1
0.782,0,1,1,0,1
0.784,0,1,1,0,1
0.786,2047,1,1,0,1
0.788,2047,1,1,0,1
0.79,0,1,1,0,1
0.792,0,1,1,0,1
0.794,1064,1,1,0,1
0.796,2047,1,1,0,1
0.798,1185,1,1,0,1
0.8,0,1,1,0,1
0.802,1694,1,1,0,1
0.804,2047,1,1,0,1
0.806,898,1,1,0,1
0.8080000000000001,0,1,1,0,1
0.8100000000000001,0,1,1,0,1
0.8120000000000001,2047,1,1,0,1
0.8139999999999999,2047,1,1,0,1
0.8159999999999999,0,1,1,0,1
0.8179999999999999,470,1,1,0,1
0.82,2047,1,1,0,1
0.822,2047,1,1,0,1
0.824,0,1,1,0,1
0.826,0,1,1,0,1
0.828,2046,1,1,0,1
0.83,2047,1,1,0,1
0.832,0,1,1,0,1
0.834,0,1,1,0,1
0.836,2047,1,1,0,1
0.838,2047,1,1,0,1
0.84,0,1,1,0,1
0.842,0,1,1,0,1
0.844,1065,1,1,0,1
0.846,2047,1,1,0,1
0.848,1237,1,1,0,1
0.85,0,1,1,0,1
0.852,1679,1,1,0,1
0.854,2047,1,1,0,1
0.856,979,1,1,0,1
0.858,0,1,1,0,1
0.86,19,1,1,0,1
0.862,2047,1,1,0,1
0.864,2047,1,1,0,1
0.866,0,1,1,0,1
0.868,465,1,1,0,1
0.87,2047,1,1,0,1
0.872,2047,1,1,0,1
0.874,0,1,1,0,1
0.876,0,1,1,0,1
0.878,2047,1,1,0,1
0.88,2047,1,1,0,1
0.882,0,1,1,0,1
0.884,0,1,1,0,1
0.886,2047,1,1,0,1
0.888,2047,1,1,0,1
0.89,0,1,1,0,1
0.892,0,1,1,0,1
0.894,1050,1,1,0,1
0.896,2047,1,1,0,1
0.898,1258,1,1,0,1
0.9,0,1,1,0,1
0.902,1658,1,1,0,1
0.904,2047,1,1,0,1
0.906,1014,1,1,0,1
0.908,0,1,1,0,1
0.91,0,1,1,0,1
0.912,2047,1,1,0,1
0.914,2047,1,1,0,1
0.916,0,1,1,0,1
0.918,406,1,1,0,1
0.92,2047,1,1,0,1
0.922,2047,1,1,0,1
0.924,0,1,1,0,1
0.926,0,1,1,0,1
0.928,2043,1,1,0,1
0.93,2047,1,1,0,1
0.9320000000000001,0,1,1,0,1
0.9340000000000001,0,1,1,0,1
0.9360000000000001,2047,1,1,0,1
0.9379999999999999,2047,1,1,0,1
0.9399999999999999,0,1,1,0,1
0.9419999999999999,0,1,1,0,1
0.944,1018,1,1,0,1
0.946,2047,1,1,0,1
0.948,1263,1,1,0,1
0.95,0,1,1,0,1
0.952,1615,1,1,0,1
0.954,2047,1,1,0,1
0.956,1075,1,1,0,1
0.958,0,1,1,0,1
0.96,0,1,1,0,1
0.962,2047,1,1,0,1
0.964,2047,1,1,0,1
0.966,0,1,1,0,1
0.968,406,1,1,0,1
0.97,2047,1,1,0,1
0.972,2047,1,1,0,1
0.974,0,1,1,0,1
0.976,0,1,1,0,1
0.978,2045,1,1,0,1
0.98,2047,1,1,0,1
0.982,0,1,1,0,1
0.984,0,1,1,0,1
0.986,2047,1,1,0,1
0.988,2047,1,1,0,1
0.99,0,1,1,0,1
0.992,0,1,1,0,1
0.994,1003,1,1,0,1
0.996,2047,1,1,0,1
0.998,1389,1,1,0,1
1,0,1,1,0,1
1.002,1662,1,1,0,1
1.004,2047,1,1,0,1
1.006,1177,1,1,0,1
1.008,0,1,1,0,1
1.01,0,1,1,0,1
1.012,2047,1,1,0,1
1.014,2047,1,1,0,1
1.016,0,1,1,0,1
1.018,438,1,1,0,1
1.02,2047,1,1,0,1
1.022,2047,1,1,0,1
1.024,0,1,1,0,1
1.026,0,1,1,0,1
1.028,2038,1,1,0,1
1.03,2047,1,1,0,1
1.032,0,1,1,0,1
1.034,0,1,1,0,1
1.036,2047,1,1,0,1
1.038,2047,1,1,0,1
1.04,0,1,1,0,1
1.042,0,1,1,0,1
1.044,1009,1,1,0,1
1.046,2047,1,1,0,1
1.048,1501,1,1,0,1
1.05,0,1,1,0,1
1.052,1671,1,1,0,1
1.054,2047,1,1,0,1
1.056,1210,1,1,0,1
1.058,0,1,1,0,1
1.06,0,1,1,0,1
1.062,2047,1,1,0,1
1.064,2047,1,1,0,1
1.066,0,1,1,0,1
1.068,427,1,1,0,1
1.07,2047,1,1,0,1
1.072,2047,1,1,0,1
1.074,0,1,1,0,1
1.076,0,1,1,0,1
1.078,2023,1,1,0,1
1.08,2047,1,1,0,1
1.082,0,1,1,0,1
1.084,0,1,1,0,1
1.086,2047,1,1,0,1
1.088,2047,1,1,0,1
1.09,0,1,1,0,1
1.092,0,1,1,0,1
1.094,974,1,1,0,1
1.096,2047,1,1,0,1
1.098,1557,1,1,0,1
1.1,0,1,1,0,1
1.102,1638,1,1,0,1
1.104,2047,1,1,0,1
1.106,1252,1,1,0,1
1.108,0,1,1,0,1
1.11,0,1,1,0,1
1.112,2047,1,1,0,1
1.114,2047,1,1,0,1
1.116,0,1,1,0,1
1.118,397,1,1,0,1
1.12,2047,1,1,0,1
1.122,2047,1,1,0,1
1.124,0,1,1,0,1
1.126,0,1,1,0,1
1.128,2006,1,1,0,1
1.13,2047,1,1,0,1
1.132,0,1,1,0,1
1.134,0,1,1,0,1
1.136,2047,1,1,0,1
1.138,2047,1,1,0,1
1.14,0,1,1,0,1
1.142,0,1,1,0,1
1.144,954,1,1,0,1
1.146,2047,1,1,0,1
1.148,1580,1,1,0,1
1.15,0,1,1,0,1
1.152,1619,1,1,0,1
1.154,2047,1,1,0,1
1.156,1318,1,1,0,1
1.158,0,1,1,0,1
1.16,0,1,1,0,1
1.162,2047,1,1,0,1
1.164,2047,1,1,0,1
1.166,0,1,1,0,1
1.168,346,1,1,0,1
1.17,2047,1,1,0,1
1.172,2047,1,1,0,1
1.174,0,1,1,0,1
1.176,0,1,1,0,1
1.178,1977,1,1,0,1
1.18,2047,1,1,0,1
1.182,0,1,1,0,1
1.184,0,1,1,0,1
1.186,2047,1,1,0,1
1.188,2047,1,1,0,1
1.19,0,1,1,0,1
1.192,0,1,1,0,1
1.194,875,1,1,0,1
1.196,2047,1,1,0,1
1.198,1565,1,1,0,1
1.2,0,1,1,0,1
1.202,1517,1,1,0,1
1.204,2047,1,1,0,1
1.206,1305,1,1,0,1
1.208,0,1,1,0,1
1.21,0,1,1,0,1
1.212,2047,1,1,0,1
1.214,2047,1,1,0,1
1.216,0,1,1,0,1
1.218,277,1,1,0,1
1.22,2047,1,1,0,1
1.222,2047,1,1,0,1
1.224,0,1,1,0,1
1.226,0,1,1,0,1
1.228,1925,1,1,0,1
1.23,2047,1,1,0,1
1.232,0,1,1,0,1
1.234,0,1,1,0,1
1.236,2047,1,1,0,1
1.238,2047,1,1,0,1
1.24,0,1,1,0,1
1.242,0,1,1,0,1
1.244,873,1,1,0,1
1.246,2047,1,1,0,1
1.248,1565,1,1,0,1
1.25,0,1,1,0,1
1.252,1458,1,1,0,1
1.254,2047,1,1,0,1
1.256,1350,1,1,0,1
1.258,0,1,1,0,1
1.26,0,1,1,0,1
1.262,2047,1,1,0,1
1.264,2047,1,1,0,1
1.266,0,1,1,0,1
1.268,267,1,1,0,1
1.27,2047,1,1,0,1
1.272,2047,1,1,0,1
1.274,0,1,1,0,1
1.276,0,1,1,0,1
1.278,2047,1,1,0,1
1.28,2047,1,1,0,1
1.282,6,1,1,0,1
1.284,0,1,1,0,1
1.286,2047,1,1,0,1
1.288,2047,1,1,0,1
1.29,0,1,1,0,1
1.292,0,1,1,0,1
1.294,1110,1,1,0,1
1.296,2047,1,1,0,1
1.298,1687,1,1,0,1
1.3,0,1,1,0,1
1.302,1363,1,1,0,1
1.304,2047,1,1,0,1
1.306,1190,1,1,0,1
1.308,0,1,1,0,1
1.31,0,1,1,0,1
1.312,2047,1,1,0,1
1.314,2047,1,1,0,1
1.316,0,1,1,0,1
1.318,0,1,1,0,1
1.32,2047,1,1,0,1
1.322,2047,1,1,0,1
1.324,0,1,1,0,1
1.326,0,1,1,0,1
1.328,1607,1,1,0,1
1.33,2047,1,1,0,1
1.332,0,1,1,0,1
1.334,0,1,1,0,1
1.336,2047,1,1,0,1
1.338,2047,1,1,0,1
1.34,0,1,1,0,1
1.342,0,1,1,0,1
1.344,766,1,1,0,1
1.346,2047,1,1,0,1
1.348,1590,1,1,0,1
1.35,0,1,1,0,1
1.352,1403,1,1,0,1
1.354,2047,1,1,0,1
1.356,1454,1,1,0,1
1.358,0,1,1,0,1
1.36,0,1,1,0,1
1.362,2047,1,1,0,1
1.364,2047,1,1,0,1
1.366,0,1,1,0,1
1.368,240,1,1,0,1
1.37,2047,1,1,0,1
1.372,2047,1,1,0,1
1.374,0,1,1,0,1
1.376,0,1,1,0,1
1.378,1983,1,1,0,1
1.38,2047,1,1,0,1
1.382,0,1,1,0,1
1.384,0,1,1,0,1
1.386,2047,1,1,0,1
1.388,2047,1,1,0,1
1.39,0,1,1,0,1
1.392,0,1,1,0,1
1.394,899,1,1,0,1
1.396,2047,1,1,0,1
1.398,1787,1,1,0,1
1.4,0,1,1,0,1
1.402,1491,1,1,0,1
1.404,2047,1,1,0,1
1.406,1535,1,1,0,1
1.408,0,1,1,0,1
1.41,0,1,1,0,1
1.412,2047,1,1,0,1
1.414,2047,1,1,0,1
1.416,0,1,1,0,1
1.418,249,1,1,0,1
1.42,2047,1,1,0,1
1.422,2047,1,1,0,1
1.424,0,1,1,0,1
1.426,0,1,1,0,1
1.428,1939,1,1,0,1
1.43,2047,1,1,0,1
1.432,1,1,1,0,1
1.434,0,1,1,0,1
1.436,2047,1,1,0,1
1.438,2047,1,1,0,1
1.44,0,1,1,0,1
1.442,0,1,1,0,1
1.444,866,1,1,0,1
1.446,2047,1,1,0,1
1.448,1868,1,1,0,1
1.45,0,1,1,0,1
1.452,1490,1,1,0,1
1.454,2047,1,1,0,1
1.456,1593,1,1,0,1
1.458,0,1,1,0,1
1.46,0,1,1,0,1
1.462,2047,1,1,0,1
1.464,2047,1,1,0,1
1.466,0,1,1,0,1
1.468,273,1,1,0,1
1.47,2047,1,1,0,1
1.472,2047,1,1,0,1
1.474,0,1,1,0,1
1.476,0,1,1,0,1
1.478,1935,1,1,0,1
1.48,2047,1,1,0,1
1.482,59,1,1,0,1
1.484,0,1,1,0,1
1.486,2047,1,1,0,1
1.488,2047,1,1,0,1
1.49,0,1,1,0,1
1.492,0,1,1,0,1
1.494,858,1,1,0,1
1.496,2047,1,1,0,1
1.498,1977,1,1,0,1
1.5,0,1,1,0,1
1.502,1506,1,1,0,1
1.504,2047,1,1,0,1
1.506,1647,1,1,0,1
1.508,0,1,1,0,1
1.51,0,1,1,0,1
1.512,2047,1,1,0,1
1.514,2047,1,1,0,1
1.516,0,1,1,0,1
1.518,272,1,1,0,1
1.52,2047,1,1,0,1
1.522,2047,1,1,0,1
1.524,0,1,1,0,1
1.526,0,1,1,0,1
1.528,1951,1,1,0,1
1.53,2047,1,1,0,1
1.532,128,1,1,0,1
1.534,0,1,1,0,1
1.536,2047,1,1,0,1
1.538,2047,1,1,0,1
1.54,0,1,1,0,1
1.542,0,1,1,0,1
1.544,817,1,1,0,1
1.546,2047,1,1,0,1
1.548,2008,1,1,0,1
1.55,0,1,1,0,1
1.552,1455,1,1,0,1
1.554,2047,1,1,0,1
1.556,1667,1,1,0,1
1.558,0,1,1,0,1
1.56,0,1,1,0,1
1.562,2047,1,1,0,1
1.564,2047,1,1,0,1
1.566,0,1,1,0,1
1.568,219,1,1,0,1
1.57,2047,1,1,0,1
1.572,2047,1,1,0,1
1.574,0,1,1,0,1
1.576,0,1,1,0,1
1.578,1844,1,1,0,1
1.58,2047,1,1,0,1
1.582,80,1,1,0,1
1.584,0,1,1,0,1
1.586,2047,1,1,0,1
1.588,2047,1,1,0,1
1.59,0,1,1,0,1
1.592,0,1,1,0,1
1.594,733,1,1,0,1
1.596,2047,1,1,0,1
1.598,1906,1,1,0,1
1.6,0,1,1,0,1
1.602,1329,1,1,0,1
1.604,2047,1,1,0,1
1.606,1631,1,1,0,1
1.608,0,1,1,0,1
1.61,0,1,1,0,1
1.612,2047,1,1,0,1
1.614,2047,1,1,0,1
1.616,0,1,1,0,1
1.618,101,1,1,0,1
1.62,2047,1,1,0,1
1.622,2047,1,1,0,1
1.624,0,1,1,0,1
1.626,0,1,1,0,1
1.628,1703,1,1,0,1
1.63,2047,1,1,0,1
1.632,4,1,1,0,1
1.634,0,1,1,0,1
1.636,2047,1,1,0,1
1.638,2047,1,1,0,1
1.64,0,1,1,0,1
1.642,0,1,1,0,1
1.644,620,1,1,0,1
1.646,2047,1,1,0,1
1.648,1863,1,1,0,1
1.65,0,1,1,0,1
1.652,1229,1,1,0,1
1.654,2047,1,1,0,1
1.656,1642,1,1,0,1
1.658,0,1,1,0,1
1.66,0,1,1,0,1
1.662,2047,1,1,0,1
1.664,2047,1,1,0,1
1.666,0,1,1,0,1
1.668,25,1,1,0,1
1.67,2047,1,1,0,1
1.672,2047,1,1,0,1
1.674,0,1,1,0,1
1.676,0,1,1,0,1
1.678,1698,1,1,0,1
1.68,2047,1,1,0,1
1.682,21,1,1,0,1
1.684,0,1,1,0,1
1.686,2047,1,1,0,1
1.688,2047,1,1,0,1
1.69,0,1,1,0,1
1.692,0,1,1,0,1
1.694,626,1,1,0,1
1.696,2047,1,1,0,1
1.698,1879,1,1,0,1
1.7,0,1,1,0,1
1.702,1213,1,1,0,1
1.704,2047,1,1,0,1
1.706,1705,1,1,0,1
1.708,0,1,1,0,1
1.71,0,1,1,0,1
1.712,2047,1,1,0,1
1.714,2047,1,1,0,1
1.716,0,1,1,0,1
1.718,0,1,1,0,1
1.72,2047,1,1,0,1
1.722,2047,1,1,0,1
1.724,0,1,1,0,1
1.726,0,1,1,0,1
1.728,1673,1,1,0,1
1.73,2047,1,1,0,1
1.732,16,1,1,0,1
1.734,0,1,1,0,1
1.736,2047,1,1,0,1
1.738,2047,1,1,0,1
1.74,0,1,1,0,1
1.742,0,1,1,0,1
1.744,609,1,1,0,1
1.746,2047,1,1,0,1
1.748,1907,1,1,0,1
1.75,0,1,1,0,1
1.752,1162,1,1,0,1
1.754,2047,1,1,0,1
1.756,1738,1,1,0,1
1.758,0,1,1,0,1
1.76,0,1,1,0,1
1.762,2047,1,1,0,1
1.764,2047,1,1,0,1
1.766,0,1,1,0,1
1.768,0,1,1,0,1
1.77,2047,1,1,0,1
1.772,2047,1,1,0,1
1.774,0,1,1,0,1
1.776,0,1,1,0,1
1.778,1694,1,1,0,1
1.78,2047,1,1,0,1
1.782,101,1,1,0,1
1.784,0,1,1,0,1
1.786,2047,1,1,0,1
1.788,2047,1,1,0,1
1.79,0,1,1,0,1
1.792,0,1,1,0,1
1.794,594,1,1,0,1
1.796,2047,1,1,0,1
1.798,2041,1,1,0,1
1.8,0,1,1,0,1
1.802,1176,1,1,0,1
1.804,2047,1,1,0,1
1.806,1796,1,1,0,1
1.808,0,1,1,0,1
1.81,0,1,1,0,1
1.812,2047,1,1,0,1
1.814,2047,1,1,0,1
1.816,0,1,1,0,1
1.818,0,1,1,0,1
1.82,2047,1,1,0,1
1.822,2047,1,1,0,1
1.824,0,1,1,0,1
1.826,0,1,1,0,1
1.828,1681,1,1,0,1
1.83,2047,1,1,0,1
1.832,236,1,1,0,1
1.834,0,1,1,0,1
1.836,2047,1,1,0,1
1.838,2047,1,1,0,1
1.84,1,1,1,0,1
1.842,0,1,1,0,1
1.844,613,1,1,0,1
1.846,2047,1,1,0,1
1.848,2047,1,1,0,1
1.85,0,1,1,0,1
1.852,1189,1,1,0,1
1.854,2047,1,1,0,1
1.856,1845,1,1,0,1
1.858,0,1,1,0,1
1.86,0,1,1,0,1
1.862,2047,1,1,0,1
1.864,2047,1,1,0,1
1.866,0,1,1,0,1
1.868,0,1,1,0,1
1.87,2047,1,1,0,1
1.872,2047,1,1,0,1
1.874,0,1,1,0,1
1.876,0,1,1,0,1
1.878,1683,1,1,0,1
1.88,2047,1,1,0,1
1.882,333,1,1,0,1
1.884,0,1,1,0,1
1.886,2047,1,1,0,1
1.888,2047,1,1,0,1
1.89,8,1,1,0,1
1.892,0,1,1,0,1
1.894,579,1,1,0,1
1.896,2047,1,1,0,1
1.898,2047,1,1,0,1
1.9,0,1,1,0,1
1.902,1165,1,1,0,1
1.904,2047,1,1,0,1
1.906,1853,1,1,0,1
1.908,0,1,1,0,1
1.91,0,1,1,0,1
1.912,2047,1,1,0,1
1.914,2047,1,1,0,1
1.916,0,1,1,0,1
1.918,0,1,1,0,1
1.92,2047,1,1,0,1
1.922,2047,1,1,0,1
1.924,0,1,1,0,1
1.926,0,1,1,0,1
1.928,1646,1,1,0,1
1.93,2047,1,1,0,1
1.932,389,1,1,0,1
1.934,0,1,1,0,1
1.936,2047,1,1,0,1
1.938,2047,1,1,0,1
1.94,58,1,1,0,1
1.942,0,1,1,0,1
1.944,558,1,1,0,1
1.946,2047,1,1,0,1
1.948,2047,1,1,0,1
1.95,0,1,1,0,1
1.952,1157,1,1,0,1
1.954,2047,1,1,0,1
1.956,1913,1,1,0,1
1.958,0,1,1,0,1
1.96,0,1,1,0,1
1.962,2047,1,1,0,1
1.964,2047,1,1,0,1
1.966,0,1,1,0,1
1.968,0,1,1,0,1
1.97,2047,1,1,0,1
1.972,2047,1,1,0,1
1.974,0,1,1,0,1
1.976,0,1,1,0,1
1.978,1629,1,1,0,1
1.98,2047,1,1,0,1
1.982,402,1,1,0,1
1.984,0,1,1,0,1
1.986,2047,1,1,0,1
1.988,2047,1,1,0,1
1.99,101,1,1,0,1
1.992,0,1,1,0,1
1.994,527,1,1,0,1
1.996,2047,1,1,0,1
1.998,2047,1,1,0,1
2,0,1,1,0,1
2.002,1101,1,1,0,1
2.004,2047,1,1,0,1
2.006,1973,1,1,0,1
2.008,0,1,1,0,1
2.01,0,1,1,0,1
2.012,2047,1,1,0,1
2.014,2047,1,1,0,1
2.016,0,1,1,0,1
2.018,0,1,1,0,1
2.02,2047,1,1,0,1
2.022,2047,1,1,0,1
2.024,0,1,1,0,1
2.026,0,1,1,0,1
2.028,1619,1,1,0,1
2.03,2047,1,1,0,1
2.032,428,1,1,0,1
2.034,0,1,1,0,1
2.036,2047,1,1,0,1
2.038,2047,1,1,0,1
2.04,164,1,1,0,1
2.042,0,1,1,0,1
2.044,551,1,1,0,1
2.046,2047,1,1,0,1
2.048,2047,1,1,0,1
2.05,0,1,1,0,1
2.052,1099,1,1,0,1
2.054,2047,1,1,0,1
2.056,2047,1,1,0,1
2.058,0,1,1,0,1
2.06,0,1,1,0,1
2.062,2047,1,1,0,1
2.064,2047,1,1,0,1
2.066,0,1,1,0,1
2.068,0,1,1,0,1
2.07,2047,1,1,0,1
2.072,2047,1,1,0,1
2.074,0,1,1,0,1
2.076,0,1,1,0,1
2.078,1614,1,1,0,1
2.08,2047,1,1,0,1
2.082,426,1,1,0,1
2.084,0,1,1,0,1
2.086,2047,1,1,0,1
2.088,2047,1,1,0,1
2.09,165,1,1,0,1
2.092,0,1,1,0,1
2.094,461,1,1,0,1
2.096,2047,1,1,0,1
2.098,2047,1,1,0,1
2.1,0,1,1,0,1
2.102,1002,1,1,0,1
2.104,2047,1,1,0,1
2.106,2047,1,1,0,1
2.108,0,1,1,0,1
2.11,0,1,1,0,1
2.112,2047,1,1,0,1
2.114,2047,1,1,0,1
2.116,0,1,1,0,1
2.118,0,1,1,0,1
2.12,2047,1,1,0,1
2.122,2047,1,1,0,1
2.124,0,1,1,0,1
2.126,0,1,1,0,1
2.128,1514,1,1,0,1
2.13,2047,1,1,0,1
2.132,387,1,1,0,1
2.134,0,1,1,0,1
2.136,2047,1,1,0,1
2.138,2047,1,1,0,1
2.14,197,1,1,0,1
2.142,0,1,1,0,1
2.144,442,1,1,0,1
2.146,2047,1,1,0,1
2.148,2047,1,1,0,1
2.15,0,1,1,0,1
2.152,958,1,1,0,1
2.154,2047,1,1,0,1
2.156,2047,1,1,0,1
2.158,0,1,1,0,1
2.16,0,1,1,0,1
2.162,2047,1,1,0,1
2.164,2047,1,1,0,1
2.166,0,1,1,0,1
2.168,0,1,1,0,1
2.17,2047,1,1,0,1
2.172,2047,1,1,0,1
2.174,0,1,1,0,1
2.176,0,1,1,0,1
2.178,1827,1,1,0,1
2.18,2047,1,1,0,1
2.182,796,1,1,0,1
2.184,0,1,1,0,1
2.186,2047,1,1,0,1
2.188,2047,1,1,0,1
2.19,651,1,1,0,1
2.192,0,1,1,0,1
2.194,692,1,1,0,1
2.196,2047,1,1,0,1
2.198,2047,1,1,0,1
2.2,0,1,1,0,1
2.202,953,1,1,0,1
2.204,2047,1,1,0,1
2.206,1928,1,1,0,1
2.208,0,1,1,0,1
2.21,0,1,1,0,1
2.212,2047,1,1,0,1
2.214,2047,1,1,0,1
2.216,0,1,1,0,1
2.218,0,1,1,0,1
2.22,2047,1,1,0,1
2.222,2047,1,1,0,1
2.224,0,1,1,0,1
2.226,0,1,1,0,1
2.228,1233,1,1,0,1
2.23,2047,1,1,0,1
2.232,329,1,1,0,1
2.234,0,1,1,0,1
2.236,1988,1,1,0,1
2.238,2047,1,1,0,1
2.24,165,1,1,0,1
2.242,0,1,1,0,1
2.244,346,1,1,0,1
2.246,2047,1,1,0,1
2.248,2047,1,1,0,1
2.25,0,1,1,0,1
2.252,964,1,1,0,1
2.254,2047,1,1,0,1
2.256,2047,1,1,0,1
2.258,0,1,1,0,1
2.26,0,1,1,0,1
2.262,2047,1,1,0,1
2.264,2047,1,1,0,1
2.266,0,1,1,0,1
2.268,0,1,1,0,1
2.27,2047,1,1,0,1
2.272,2047,1,1,0,1
2.274,0,1,1,0,1
2.276,0,1,1,0,1
2.278,1554,1,1,0,1
2.28,2047,1,1,0,1
2.282,713,1,1,0,1
2.284,0,1,1,0,1
2.286,2047,1,1,0,1
2.288,2047,1,1,0,1
2.29,417,1,1,0,1
2.292,0,1,1,0,1
2.294,455,1,1,0,1
2.296,2047,1,1,0,1
2.298,2047,1,1,0,1
2.3,0,1,1,0,1
2.302,1055,1,1,0,1
2.304,2047,1,1,0,1
2.306,2047,1,1,0,1
2.308,0,1,1,0,1
2.31,0,1,1,0,1
2.312,2047,1,1,0,1
2.314,2047,1,1,0,1
2.316,0,1,1,0,1
2.318,0,1,1,0,1
2.32,2047,1,1,0,1
2.322,2047,1,1,0,1
2.324,0,1,1,0,1
2.326,0,1,1,0,1
2.328,1505,1,1,0,1
2.33,2047,1,1,0,1
2.332,729,1,1,0,1
2.334,0,1,1,0,1
2.336,2047,1,1,0,1
2.338,2047,1,1,0,1
2.34,424,1,1,0,1
2.342,0,1,1,0,1
2.344,420,1,1,0,1
2.346,2047,1,1,0,1
2.348,2047,1,1,0,1
2.35,0,1,1,0,1
2.352,1003,1,1,0,1
2.354,2047,1,1,0,1
2.356,2047,1,1,0,1
2.358,0,1,1,0,1
2.36,0,1,1,0,1
2.362,2047,1,1,0,1
2.364,2047,1,1,0,1
2.366,0,1,1,0,1
2.368,0,1,1,0,1
2.37,2047,1,1,0,1
2.372,2047,1,1,0,1
2.374,0,1,1,0,1
2.376,0,1,1,0,1
2.378,1541,1,1,0,1
2.38,2047,1,1,0,1
2.382,781,1,1,0,1
2.384,0,1,1,0,1
2.386,2047,1,1,0,1
2.388,2047,1,1,0,1
2.39,474,1,1,0,1
2.392,0,1,1,0,1
2.394,413,1,1,0,1
2.396,2047,1,1,0,1
2.398,2047,1,1,0,1
2.4,0,1,1,0,1
2.402,971,1,1,0,1
2.404,2047,1,1,0,1
2.406,2047,1,1,0,1
2.408,0,1,1,0,1
2.41,0,1,1,0,1
2.412,2047,1,1,0,1
2.414,2047,1,1,0,1
2.416,0,1,1,0,1
2.418,0,1,1,0,1
2.42,2047,1,1,0,1
2.422,2047,1,1,0,1
2.424,0,1,1,0,1
2.426,0,1,1,0,1
2.428,1514,1,1,0,1
2.43,2047,1,1,0,1
2.432,799,1,1,0,1
2.434,0,1,1,0,1
2.436,2047,1,1,0,1
2.438,2047,1,1,0,1
2.44,510,1,1,0,1
2.442,0,1,1,0,1
2.444,404,1,1,0,1
2.446,2047,1,1,0,1
2.448,2047,1,1,0,1
2.45,0,1,1,0,1
2.452,950,1,1,0,1
2.454,2047,1,1,0,1
2.456,2047,1,1,0,1
2.458,0,1,1,0,1
2.46,0,1,1,0,1
2.462,2047,1,1,0,1
2.464,2047,1,1,0,1
2.466,0,1,1,0,1
2.468,0,1,1,0,1
2.47,2047,1,1,0,1
2.472,2047,1,1,0,1
2.474,0,1,1,0,1
2.476,0,1,1,0,1
2.478,1467,1,1,0,1
2.48,2047,1,1,0,1
2.482,778,1,1,0,1
2.484,0,1,1,0,1
2.486,2045,1,1,0,1
2.488,2047,1,1,0,1
2.49,493,1,1,0,1
2.492,0,1,1,0,1
2.494,330,1,1,0,1
2.496,2047,1,1,0,1
2.498,2047,1,1,0,1
2.5,0,1,1,0,1
2.502,831,1,1,0,1
2.504,2047,1,1,0,1
2.506,2047,1,1,0,1
2.508,0,1,1,0,1
2.51,0,1,1,0,1
2.512,2047,1,1,0,1
2.514,2047,1,1,0,1
2.516,0,1,1,0,1
2.518,0,1,1,0,1
2.52,2047,1,1,0,1
2.522,2047,1,1,0,1
2.524,0,1,1,0,1
2.526,0,1,1,0,1
2.528,1330,1,1,0,1
2.53,2047,1,1,0,1
2.532,687,1,1,0,1
2.534,0,1,1,0,1
2.536,1949,1,1,0,1
2.538,2047,1,1,0,1
2.54,461,1,1,0,1
2.542,0,1,1,0,1
2.544,272,1,1,0,1
2.546,2047,1,1,0,1
2.548,2047,1,1,0,1
2.55,0,1,1,0,1
2.552,746,1,1,0,1
2.554,2047,1,1,0,1
2.556,2047,1,1,0,1
2.558,0,1,1,0,1
2.56,0,1,1,0,1
2.562,2047,1,1,0,1
2.564,2047,1,1,0,1
2.566,0,1,1,0,1
2.568,0,1,1,0,1
2.57,2047,1,1,0,1
2.572,2047,1,1,0,1
2.574,0,1,1,0,1
2.576,0,1,1,0,1
2.578,1329,1,1,0,1
2.58,2047,1,1,0,1
2.582,722,1,1,0,1
2.584,0,1,1,0,1
2.586,1919,1,1,0,1
2.588,2047,1,1,0,1
2.59,502,1,1,0,1
2.592,0,1,1,0,1
2.594,251,1,1,0,1
2.596,2047,1,1,0,1
2.598,2047,1,1,0,1
2.6,0,1,1,0,1
2.602,733,1,1,0,1
2.604,2047,1,1,0,1
2.606,2047,1,1,0,1
2.608,0,1,1,0,1
2.61,0,1,1,0,1
2.612,2047,1,1,0,1
2.614,2047,1,1,0,1
2.616,0,1,1,0,1
2.618,0,1,1,0,1
2.62,2047,1,1,0,1
2.622,2047,1,1,0,1
2.624,0,1,1,0,1
2.626,0,1,1,0,1
2.628,1315,1,1,0,1
2.63,2047,1,1,0,1
2.632,856,1,1,0,1
2.634,0,1,1,0,1
2.636,1965,1,1,0,1
2.638,2047,1,1,0,1
2.64,571,1,1,0,1
2.642,0,1,1,0,1
2.644,250,1,1,0,1
2.646,2047,1,1,0,1
2.648,2047,1,1,0,1
2.65,0,1,1,0,1
2.652,758,1,1,0,1
2.654,2047,1,1,0,1
2.656,2047,1,1,0,1
2.658,0,1,1,0,1
2.66,0,1,1,0,1
2.662,2047,1,1,0,1
2.664,2047,1,1,0,1
2.666,0,1,1,0,1
2.668,0,1,1,0,1
2.67,2047,1,1,0,1
2.672,2047,1,1,0,1
2.674,0,1,1,0,1
2.676,0,1,1,0,1
2.678,1295,1,1,0,1
2.68,2047,1,1,0,1
2.682,970,1,1,0,1
2.684,0,1,1,0,1
2.686,1975,1,1,0,1
2.688,2047,1,1,0,1
2.69,635,1,1,0,1
2.692,0,1,1,0,1
2.694,224,1,1,0,1
2.696,2047,1,1,0,1
2.698,2047,1,1,0,1
2.7,0,1,1,0,1
2.702,777,1,1,0,1
2.704,2047,1,1,0,1
2.706,2047,1,1,0,1
2.708,0,1,1,0,1
2.71,0,1,1,0,1
2.712,2047,1,1,0,1
2.714,2047,1,1,0,1
2.716,0,1,1,0,1
2.718,0,1,1,0,1
2.72,2047,1,1,0,1
2.722,2047,1,1,0,1
2.724,0,1,1,0,1
2.726,0,1,1,0,1
2.728,1265,1,1,0,1
2.73,2047,1,1,0,1
2.732,1035,1,1,0,1
2.734,0,1,1,0,1
2.736,1959,1,1,0,1
2.738,2047,1,1,0,1
2.74,671,1,1,0,1
2.742,0,1,1,0,1
2.744,190,1,1,0,1
2.746,2047,1,1,0,1
2.748,2047,1,1,0,1
2.75,0,1,1,0,1
2.752,733,1,1,0,1
2.754,2047,1,1,0,1
2.756,2047,1,1,0,1
2.758,0,1,1,0,1
2.76,0,1,1,0,1
2.762,2047,1,1,0,1
2.764,2047,1,1,0,1
2.766,0,1,1,0,1
2.768,0,1,1,0,1
2.77,2047,1,1,0,1
2.772,2047,1,1,0,1
2.774,0,1,1,0,1
2.776,0,1,1,0,1
2.778,1241,1,1,0,1
2.78,2047,1,1,0,1
2.782,1021,1,1,0,1
2.784,0,1,1,0,1
2.786,1919,1,1,0,1
2.788,2047,1,1,0,1
2.79,731,1,1,0,1
2.792,0,1,1,0,1
2.794,183,1,1,0,1
2.796,2047,1,1,0,1
2.798,2047,1,1,0,1
2.8,0,1,1,0,1
2.802,695,1,1,0,1
2.804,2047,1,1,0,1
2.806,2047,1,1,0,1
2.808,0,1,1,0,1
2.81,0,1,1,0,1
2.812,2047,1,1,0,1
2.814,2047,1,1,0,1
2.816,0,1,1,0,1
2.818,0,1,1,0,1
2.82,2047,1,1,0,1
2.822,2047,1,1,0,1
2.824,0,1,1,0,1
2.826,0,1,1,0,1
2.828,1235,1,1,0,1
2.83,2047,1,1,0,1
2.832,1031,1,1,0,1
2.834,0,1,1,0,1
2.836,1871,1,1,0,1
2.838,2047,1,1,0,1
2.84,771,1,1,0,1
2.842,0,1,1,0,1
2.844,151,1,1,0,1
2.846,2047,1,1,0,1
2.848,2047,1,1,0,1
2.85,0,1,1,0,1
2.852,658,1,1,0,1
2.854,2047,1,1,0,1
2.856,2047,1,1,0,1
2.858,0,1,1,0,1
2.86,0,1,1,0,1
2.862,2047,1,1,0,1
2.864,2047,1,1,0,1
2.866,0,1,1,0,1
2.868,0,1,1,0,1
2.87,2047,1,1,0,1
2.872,2047,1,1,0,1
2.874,0,1,1,0,1
2.876,0,1,1,0,1
2.878,1223,1,1,0,1
2.88,2047,1,1,0,1
2.882,1039,1,1,0,1
2.884,0,1,1,0,1
2.886,1864,1,1,0,1
2.888,2047,1,1,0,1
2.89,823,1,1,0,1
2.892,0,1,1,0,1
2.894,149,1,1,0,1
2.896,2047,1,1,0,1
2.898,2047,1,1,0,1
2.9,0,1,1,0,1
2.902,628,1,1,0,1
2.904,2047,1,1,0,1
2.906,2047,1,1,0,1
2.908,0,1,1,0,1
2.91,0,1,1,0,1
2.912,2047,1,1,0,1
2.914,2047,1,1,0,1
2.916,0,1,1,0,1
2.918,0,1,1,0,1
2.92,2047,1,1,0,1
2.922,2047,1,1,0,1
2.924,0,1,1,0,1
2.926,0,1,1,0,1
2.928,1206,1,1,0,1
2.93,2047,1,1,0,1
2.932,1045,1,1,0,1
2.934,0,1,1,0,1
2.936,1830,1,1,0,1
2.938,2047,1,1,0,1
2.94,869,1,1,0,1
2.942,0,1,1,0,1
2.944,162,1,1,0,1
2.946,2047,1,1,0,1
2.948,2047,1,1,0,1
2.95,0,1,1,0,1
2.952,601,1,1,0,1
2.954,2047,1,1,0,1
2.956,2047,1,1,0,1
2.958,0,1,1,0,1
2.96,0,1,1,0,1
2.962,2047,1,1,0,1
2.964,2047,1,1,0,1
2.966,0,1,1,0,1
2.968,0,1,1,0,1
2.97,2047,1,1,0,1
2.972,2047,1,1,0,1
2.974,0,1,1,0,1
2.976,0,1,1,0,1
2.978,1215,1,1,0,1
2.98,2047,1,1,0,1
2.982,1077,1,1,0,1
2.984,0,1,1,0,1
2.986,1786,1,1,0,1
2.988,2047,1,1,0,1
2.99,899,1,1,0,1
2.992,0,1,1,0,1
2.994,100,1,1,0,1
2.996,2047,1,1,0,1
2.998,2047,1,1,0,1
3,0,1,1,0,1
3.002,542,1,1,0,1
3.004,2047,1,1,0,1
3.006,2047,1,1,0,1
3.008,0,1,1,0,1
3.01,0,1,1,0,1
3.012,2047,1,1,0,1
3.014,2047,1,1,0,1
3.016,0,1,1,0,1
3.018,0,1,1,0,1
3.02,2047,1,1,0,1
3.022,2047,1,1,0,1
3.024,0,1,1,0,1
3.026,0,1,1,0,1
3.028,1167,1,1,0,1
3.03,2047,1,1,0,1
3.032,1167,1,1,0,1
3.034,0,1,1,0,1
3.036,1790,1,1,0,1
3.038,2047,1,1,0,1
3.04,943,1,1,0,1
3.042,0,1,1,0,1
3.044,112,1,1,0,1
3.046,2047,1,1,0,1
3.048,2047,1,1,0,1
3.05,0,1,1,0,1
3.052,552,1,1,0,1
3.054,2047,1,1,0,1
3.056,2047,1,1,0,1
3.058,0,1,1,0,1
3.06,0,1,1,0,1
3.062,2047,1,1,0,1
3.064,2047,1,1,0,1
3.066,0,1,1,0,1
3.068,0,1,1,0,1
3.07,2047,1,1,0,1
3.072,2047,1,1,0,1
3.074,0,1,1,0,1
3.076,0,1,1,0,1
3.078,1309,1,1,0,1
3.08,2047,1,1,0,1
3.082,1517,1,1,0,1
3.084,0,1,1,0,1
3.086,2047,1,1,0,1
3.088,2047,1,1,0,1
3.09,1342,1,1,0,1
3.092,0,1,1,0,1
3.094,317,1,1,0,1
3.096,2047,1,1,0,1
3.098,2047,1,1,0,1
3.1,0,1,1,0,1
3.102,625,1,1,0,1
3.104,2047,1,1,0,1
3.106,2047,1,1,0,1
3.108,0,1,1,0,1
3.11,0,1,1,0,1
3.112,1826,1,1,0,1
3.114,2047,1,1,0,1
3.116,0,1,1,0,1
3.118,0,1,1,0,1
3.12,2047,1,1,0,1
3.122,2047,1,1,0,1
3.124,0,1,1,0,1
3.126,0,1,1,0,1
3.128,819,1,1,0,1
3.13,2047,1,1,0,1
3.132,1095,1,1,0,1
3.134,0,1,1,0,1
3.136,1559,1,1,0,1
3.138,2047,1,1,0,1
3.14,824,1,1,0,1
3.142,0,1,1,0,1
3.144,0,1,1,0,1
3.146,2047,1,1,0,1
3.148,2047,1,1,0,1
3.15,0,1,1,0,1
3.152,502,1,1,0,1
3.154,2047,1,1,0,1
3.156,2047,1,1,0,1
3.158,0,1,1,0,1
3.16,0,1,1,0,1
3.162,2047,1,1,0,1
3.164,2047,1,1,0,1
3.166,0,1,1,0,1
3.168,0,1,1,0,1
3.17,2047,1,1,0,1
3.172,2047,1,1,0,1
3.174,0,1,1,0,1
3.176,0,1,1,0,1
3.178,1126,1,1,0,1
3.18,2047,1,1,0,1
3.182,1410,1,1,0,1
3.184,0,1,1,0,1
3.186,1795,1,1,0,1
3.188,2047,1,1,0,1
3.19,1083,1,1,0,1
3.192,0,1,1,0,1
3.194,58,1,1,0,1
3.196,2047,1,1,0,1
3.198,2047,1,1,0,1
3.2,0,1,1,0,1
3.202,523,1,1,0,1
3.204,2047,1,1,0,1
3.206,2047,1,1,0,1
3.208,0,1,1,0,1
3.21,0,1,1,0,1
3.212,2047,1,1,0,1
3.214,2047,1,1,0,1
3.216,0,1,1,0,1
3.218,0,1,1,0,1
3.22,2047,1,1,0,1
3.222,2047,1,1,0,1
3.224,0,1,1,0,1
3.226,0,1,1,0,1
3.228,1106,1,1,0,1
3.23,2047,1,1,0,1
3.232,1423,1,1,0,1
3.234,0,1,1,0,1
3.236,1745,1,1,0,1
3.238,2047,1,1,0,1
3.24,1110,1,1,0,1
3.242,0,1,1,0,1
3.244,9,1,1,0,1
3.246,2047,1,1,0,1
3.248,2047,1,1,0,1
3.25,0,1,1,0,1
3.252,491,1,1,0,1
3.254,2047,1,1,0,1
3.256,2047,1,1,0,1
3.258,0,1,1,0,1
3.26,0,1,1,0,1
3.262,2047,1,1,0,1
3.264,2047,1,1,0,1
3.266,0,1,1,0,1
3.268,0,1,1,0,1
3.27,2047,1,1,0,1
3.272,2047,1,1,0,1
3.274,0,1,1,0,1
3.276,0,1,1,0,1
3.278,1095,1,1,0,1
3.28,2047,1,1,0,1
3.282,1451,1,1,0,1
3.284,0,1,1,0,1
3.286,1734,1,1,0,1
3.288,2047,1,1,0,1
3.29,1181,1,1,0,1
3.292,0,1,1,0,1
3.294,34,1,1,0,1
3.296,2047,1,1,0,1
3.298,2047,1,1,0,1
3.3,0,1,1,0,1
3.302,467,1,1,0,1
3.304,2047,1,1,0,1
3.306,2047,1,1,0,1
3.308,0,1,1,0,1
3.31,0,1,1,0,1
3.312,2047,1,1,0,1
3.314,2047,1,1,0,1
3.316,0,1,1,0,1
3.318,0,1,1,0,1
3.32,2047,1,1,0,1
3.322,2047,1,1,0,1
3.324,0,1,1,0,1
3.326,0,1,1,0,1
3.328,1070,1,1,0,1
3.33,2047,1,1,0,1
3.332,1450,1,1,0,1
3.334,0,1,1,0,1
3.336,1714,1,1,0,1
3.338,2047,1,1,0,1
3.34,1217,1,1,0,1
3.342,0,1,1,0,1
3.344,16,1,1,0,1
3.346,2047,1,1,0,1
3.348,2047,1,1,0,1
3.35,0,1,1,0,1
3.352,440,1,1,0,1
3.354,2047,1,1,0,1
3.356,2047,1,1,0,1
3.358,0,1,1,0,1
3.36,0,1,1,0,1
3.362,2047,1,1,0,1
3.364,2047,1,1,0,1
3.366,0,1,1,0,1
3.368,0,1,1,0,1
3.37,2047,1,1,0,1
3.372,2047,1,1,0,1
3.374,0,1,1,0,1
3.376,0,1,1,0,1
3.378,1051,1,1,0,1
3.38,2047,1,1,0,1
3.382,1431,1,1,0,1
3.384,0,1,1,0,1
3.386,1634,1,1,0,1
3.388,2047,1,1,0,1
3.39,1222,1,1,0,1
3.392,0,1,1,0,1
3.394,0,1,1,0,1
3.396,2047,1,1,0,1
3.398,2047,1,1,0,1
3.4,0,1,1,0,1
3.402,333,1,1,0,1
3.404,2047,1,1,0,1
3.406,2047,1,1,0,1
3.408,0,1,1,0,1
3.41,0,1,1,0,1
3.412,2023,1,1,0,1
3.414,2047,1,1,0,1
3.416,0,1,1,0,1
3.418,0,1,1,0,1
3.42,2047,1,1,0,1
3.422,2047,1,1,0,1
3.424,0,1,1,0,1
3.426,0,1,1,0,1
3.428,895,1,1,0,1
3.43,2047,1,1,0,1
3.432,1391,1,1,0,1
3.434,0,1,1,0,1
3.436,1499,1,1,0,1
3.438,2047,1,1,0,1
3.44,1161,1,1,0,1
3.442,0,1,1,0,1
3.444,0,1,1,0,1
3.446,2047,1,1,0,1
3.448,2047,1,1,0,1
3.45,0,1,1,0,1
3.452,281,1,1,0,1
3.454,2047,1,1,0,1
3.456,2047,1,1,0,1
3.458,0,1,1,0,1
3.46,0,1,1,0,1
3.462,1949,1,1,0,1
3.464,2047,1,1,0,1
3.466,0,1,1,0,1
3.468,0,1,1,0,1
3.47,2047,1,1,0,1
3.472,2047,1,1,0,1
3.474,0,1,1,0,1
3.476,0,1,1,0,1
3.478,918,1,1,0,1
3.48,2047,1,1,0,1
3.482,1494,1,1,0,1
3.484,0,1,1,0,1
3.486,1545,1,1,0,1
3.488,2047,1,1,0,1
3.49,1242,1,1,0,1
3.492,0,1,1,0,1
3.494,0,1,1,0,1
3.496,2047,1,1,0,1
3.498,2047,1,1,0,1
3.5,0,1,1,0,1
3.502,318,1,1,0,1
3.504,2047,1,1,0,1
3.506,2047,1,1,0,1
3.508,0,1,1,0,1
3.51,0,1,1,0,1
3.512,1951,1,1,0,1
3.514,2047,1,1,0,1
3.516,0,1,1,0,1
3.518,0,1,1,0,1
3.52,2047,1,1,0,1
3.522,2047,1,1,0,1
3.524,0,1,1,0,1
3.526,0,1,1,0,1
3.528,875,1,1,0,1
3.53,2047,1,1,0,1
3.532,1578,1,1,0,1
3.534,0,1,1,0,1
3.536,1534,1,1,0,1
3.538,2047,1,1,0,1
3.54,1281,1,1,0,1
3.542,0,1,1,0,1
3.544,0,1,1,0,1
3.546,2047,1,1,0,1
3.548,2047,1,1,0,1
3.55,0,1,1,0,1
3.552,284,1,1,0,1
3.554,2047,1,1,0,1
3.556,2047,1,1,0,1
3.558,0,1,1,0,1
3.56,0,1,1,0,1
3.562,1947,1,1,0,1
3.564,2047,1,1,0,1
3.566,0,1,1,0,1
3.568,0,1,1,0,1
3.57,2047,1,1,0,1
3.572,2047,1,1,0,1
3.574,0,1,1,0,1
3.576,0,1,1,0,1
3.578,887,1,1,0,1
3.58,2047,1,1,0,1
3.582,1606,1,1,0,1
3.584,0,1,1,0,1
3.586,1525,1,1,0,1
3.588,2047,1,1,0,1
3.59,1333,1,1,0,1
3.592,0,1,1,0,1
3.594,0,1,1,0,1
3.596,2047,1,1,0,1
3.598,2047,1,1,0,1
3.6,0,1,1,0,1
3.602,271,1,1,0,1
3.604,2047,1,1,0,1
3.606,2047,1,1,0,1
3.608,0,1,1,0,1
3.61,0,1,1,0,1
3.612,1914,1,1,0,1
3.614,2047,1,1,0,1
3.616,0,1,1,0,1
3.618,0,1,1,0,1
3.62,2047,1,1,0,1
3.622,2047,1,1,0,1
3.624,0,1,1,0,1
3.626,0,1,1,0,1
3.628,843,1,1,0,1
3.63,2047,1,1,0,1
3.632,1602,1,1,0,1
3.634,0,1,1,0,1
3.636,1467,1,1,0,1
3.638,2047,1,1,0,1
3.64,1350,1,1,0,1
3.642,0,1,1,0,1
3.644,0,1,1,0,1
3.646,2047,1,1,0,1
3.648,2047,1,1,0,1
3.65,0,1,1,0,1
3.652,217,1,1,0,1
3.654,2047,1,1,0,1
3.656,2047,1,1,0,1
3.658,0,1,1,0,1
3.66,0,1,1,0,1
3.662,1907,1,1,0,1
3.664,2047,1,1,0,1
3.666,0,1,1,0,1
3.668,0,1,1,0,1
3.67,2047,1,1,0,1
3.672,2047,1,1,0,1
3.674,0,1,1,0,1
3.676,0,1,1,0,1
3.678,854,1,1,0,1
3.68,2047,1,1,0,1
3.682,1622,1,1,0,1
3.684,0,1,1,0,1
3.686,1444,1,1,0,1
3.688,2047,1,1,0,1
3.69,1388,1,1,0,1
3.692,0,1,1,0,1
3.694,0,1,1,0,1
3.696,2047,1,1,0,1
3.698,2047,1,1,0,1
3.7,0,1,1,0,1
3.702,220,1,1,0,1
3.704,2047,1,1,0,1
3.706,2047,1,1,0,1
3.708,0,1,1,0,1
3.71,0,1,1,0,1
3.712,1913,1,1,0,1
3.714,2047,1,1,0,1
3.716,0,1,1,0,1
3.718,0,1,1,0,1
3.72,2047,1,1,0,1
3.722,2047,1,1,0,1
3.724,0,1,1,0,1
3.726,0,1,1,0,1
3.728,845,1,1,0,1
3.73,2047,1,1,0,1
3.732,1638,1,1,0,1
3.734,0,1,1,0,1
3.736,1407,1,1,0,1
3.738,2047,1,1,0,1
3.74,1410,1,1,0,1
3.742,0,1,1,0,1
3.744,0,1,1,0,1
3.746,2047,1,1,0,1
3.748,2047,1,1,0,1
3.75,0,1,1,0,1
3.752,175,1,1,0,1
3.754,2047,1,1,0,1
3.756,2047,1,1,0,1
3.758,0,1,1,0,1
3.76,0,1,1,0,1
3.762,1898,1,1,0,1
3.764,2047,1,1,0,1
3.766,0,1,1,0,1
3.768,0,1,1,0,1
3.77,2047,1,1,0,1
3.772,2047,1,1,0,1
3.774,0,1,1,0,1
3.776,0,1,1,0,1
3.778,818,1,1,0,1
3.78,2047,1,1,0,1
3.782,1642,1,1,0,1
3.784,0,1,1,0,1
3.786,1377,1,1,0,1
3.788,2047,1,1,0,1
3.79,1457,1,1,0,1
3.792,0,1,1,0,1
3.794,0,1,1,0,1
3.796,2047,1,1,0,1
3.798,2047,1,1,0,1
3.8,0,1,1,0,1
3.802,170,1,1,0,1
3.804,2047,1,1,0,1
3.806,2047,1,1,0,1
3.808,0,1,1,0,1
3.81,0,1,1,0,1
3.812,1919,1,1,0,1
3.814,2047,1,1,0,1
3.816,0,1,1,0,1
3.818,0,1,1,0,1
3.82,2047,1,1,0,1
3.822,2047,1,1,0,1
3.824,0,1,1,0,1
3.826,0,1,1,0,1
3.828,850,1,1,0,1
3.83,2047,1,1,0,1
3.832,1740,1,1,0,1
3.834,0,1,1,0,1
3.836,1426,1,1,0,1
3.838,2047,1,1,0,1
3.84,1535,1,1,0,1
3.842,0,1,1,0,1
3.844,0,1,1,0,1
3.846,2047,1,1,0,1
3.848,2047,1,1,0,1
3.85,0,1,1,0,1
3.852,194,1,1,0,1
3.854,2047,1,1,0,1
3.856,2047,1,1,0,1
3.858,0,1,1,0,1
3.86,0,1,1,0,1
3.862,1882,1,1,0,1
3.864,2047,1,1,0,1
3.866,0,1,1,0,1
3.868,0,1,1,0,1
3.87,2047,1,1,0,1
3.872,2047,1,1,0,1
3.874,0,1,1,0,1
3.876,0,1,1,0,1
3.878,798,1,1,0,1
3.88,2047,1,1,0,1
3.882,1814,1,1,0,1
3.884,0,1,1,0,1
3.886,1407,1,1,0,1
3.888,2047,1,1,0,1
3.89,1546,1,1,0,1
3.892,0,1,1,0,1
3.894,0,1,1,0,1
3.896,2047,1,1,0,1
3.898,2047,1,1,0,1
3.9,0,1,1,0,1
3.902,188,1,1,0,1
3.904,2047,1,1,0,1
3.906,2047,1,1,0,1
3.908,0,1,1,0,1
3.91,0,1,1,0,1
3.912,1839,1,1,0,1
3.914,2047,1,1,0,1
3.916,0,1,1,0,1
3.918,0,1,1,0,1
3.92,2047,1,1,0,1
3.922,2047,1,1,0,1
3.924,0,1,1,0,1
3.926,0,1,1,0,1
3.928,754,1,1,0,1
3.93,2047,1,1,0,1
3.932,1861,1,1,0,1
3.934,0,1,1,0,1
3.936,1381,1,1,0,1
3.938,2047,1,1,0,1
3.94,1541,1,1,0,1
3.942,0,1,1,0,1
3.944,0,1,1,0,1
3.946,2047,1,1,0,1
3.948,2047,1,1,0,1
3.95,0,1,1,0,1
3.952,185,1,1,0,1
3.954,2047,1,1,0,1
3.956,2047,1,1,0,1
3.958,0,1,1,0,1
3.96,0,1,1,0,1
3.962,1999,1,1,0,1
3.964,2047,1,1,0,1
3.966,240,1,1,0,1
3.968,0,1,1,0,1
3.97,2047,1,1,0,1
3.972,2047,1,1,0,1
3.974,61,1,1,0,1
3.976,0,1,1,0,1
3.978,1023,1,1,0,1
3.98,2047,1,1,0,1
3.982,2047,1,1,0,1
3.984,0,1,1,0,1
3.986,1447,1,1,0,1
3.988,2047,1,1,0,1
3.99,1559,1,1,0,1
3.992,0,1,1,0,1
3.994,0,1,1,0,1
3.996,2047,1,1,0,1
3.998,2047,1,1,0,1
4,0,1,1,0,1
4.002,0,1,1,0,1
4.004,2047,1,1,0,1
4.006,2047,1,1,0,1
4.008,0,1,1,0,1
4.01,0,1,1,0,1
4.012,1498,1,1,0,1
4.014,2047,1,1,0,1
4.016,0,1,1,0,1
4.018,0,1,1,0,1
4.02,2047,1,1,0,1
4.022,2047,1,1,0,1
4.024,0,1,1,0,1
4.026,0,1,1,0,1
4.028,570,1,1,0,1
4.03,2047,1,1,0,1
4.032,1805,1,1,0,1
4.034,0,1,1,0,1
4.036,1296,1,1,0,1
4.038,2047,1,1,0,1
4.04,1611,1,1,0,1
4.042,0,1,1,0,1
4.044,0,1,1,0,1
4.046,2047,1,1,0,1
4.048,2047,1,1,0,1
4.05,0,1,1,0,1
4.052,153,1,1,0,1
4.054,2047,1,1,0,1
4.056,2047,1,1,0,1
4.058,0,1,1,0,1
4.06,0,1,1,0,1
4.062,1838,1,1,0,1
4.064,2047,1,1,0,1
4.066,81,1,1,0,1
4.068,0,1,1,0,1
4.07,2047,1,1,0,1
4.072,2047,1,1,0,1
4.074,0,1,1,0,1
4.076,0,1,1,0,1
4.078,746,1,1,0,1
4.08,2047,1,1,0,1
4.082,1923,1,1,0,1
4.084,0,1,1,0,1
4.086,1349,1,1,0,1
4.088,2047,1,1,0,1
4.09,1693,1,1,0,1
4.092,0,1,1,0,1
4.094,0,1,1,0,1
4.096,2047,1,1,0,1
4.098,2047,1,1,0,1
4.1,0,1,1,0,1
4.102,127,1,1,0,1
4.104,2047,1,1,0,1
4.106,2047,1,1,0,1
4.108,0,1,1,0,1
4.11,0,1,1,0,1
4.112,1814,1,1,0,1
4.114,2047,1,1,0,1
4.116,77,1,1,0,1
4.118,0,1,1,0,1
4.12,2047,1,1,0,1
4.122,2047,1,1,0,1
4.124,0,1,1,0,1
4.126,0,1,1,0,1
4.128,759,1,1,0,1
4.13,2047,1,1,0,1
4.132,1961,1,1,0,1
4.134,0,1,1,0,1
4.136,1319,1,1,0,1
4.138,2047,1,1,0,1
4.14,1733,1,1,0,1
4.142,0,1,1,0,1
4.144,0,1,1,0,1
4.146,2047,1,1,0,1
4.148,2047,1,1,0,1
4.15,0,1,1,0,1
4.152,94,1,1,0,1
4.154,2047,1,1,0,1
4.156,2047,1,1,0,1
4.158,0,1,1,0,1
4.16,0,1,1,0,1
4.162,1859,1,1,0,1
4.164,2047,1,1,0,1
4.166,115,1,1,0,1
4.168,0,1,1,0,1
4.17,2047,1,1,0,1
4.172,2047,1,1,0,1
4.174,0,1,1,0,1
4.176,0,1,1,0,1
4.178,738,1,1,0,1
4.18,2047,1,1,0,1
4.182,1995,1,1,0,1
4.184,0,1,1,0,1
4.186,1319,1,1,0,1
4.188,2047,1,1,0,1
4.19,1801,1,1,0,1
4.192,0,1,1,0,1
4.194,0,1,1,0,1
4.196,2047,1,1,0,1
4.198,2047,1,1,0,1
4.2,0,1,1,0,1
4.202,97,1,1,0,1
4.204,2047,1,1,0,1
4.206,2047,1,1,0,1
4.208,0,1,1,0,1
4.21,0,1,1,0,1
4.212,1843,1,1,0,1
4.214,2047,1,1,0,1
4.216,105,1,1,0,1
4.218,0,1,1,0,1
4.22,2047,1,1,0,1
4.222,2047,1,1,0,1
4.224,0,1,1,0,1
4.226,0,1,1,0,1
4.228,726,1,1,0,1
4.23,2047,1,1,0,1
4.232,2046,1,1,0,1
4.234,0,1,1,0,1
4.236,1278,1,1,0,1
4.238,2047,1,1,0,1
4.24,1807,1,1,0,1
4.242,0,1,1,0,1
4.244,0,1,1,0,1
4.246,2047,1,1,0,1
4.248,2047,1,1,0,1
4.25,0,1,1,0,1
4.252,72,1,1,0,1
4.254,2047,1,1,0,1
4.256,2047,1,1,0,1
4.258,0,1,1,0,1
4.26,0,1,1,0,1
4.262,1806,1,1,0,1
4.264,2047,1,1,0,1
4.266,209,1,1,0,1
4.268,0,1,1,0,1
4.27,2047,1,1,0,1
4.272,2047,1,1,0,1
4.274,0,1,1,0,1
4.276,0,1,1,0,1
4.278,678,1,1,0,1
4.28,2047,1,1,0,1
4.282,2047,1,1,0,1
4.284,0,1,1,0,1
4.286,1226,1,1,0,1
4.288,2047,1,1,0,1
4.29,1774,1,1,0,1
4.292,0,1,1,0,1
4.294,0,1,1,0,1
4.296,2047,1,1,0,1
4.298,2047,1,1,0,1
4.3,0,1,1,0,1
4.302,2,1,1,0,1
4.304,2047,1,1,0,1
4.306,2047,1,1,0,1
4.308,0,1,1,0,1
4.31,0,1,1,0,1
4.312,1674,1,1,0,1
4.314,2047,1,1,0,1
4.316,209,1,1,0,1
4.318,0,1,1,0,1
4.32,2047,1,1,0,1
4.322,2047,1,1,0,1
4.324,0,1,1,0,1
4.326,0,1,1,0,1
4.328,588,1,1,0,1
4.33,2047,1,1,0,1
4.332,2047,1,1,0,1
4.334,0,1,1,0,1
4.336,1167,1,1,0,1
4.338,2047,1,1,0,1
4.34,1735,1,1,0,1
4.342,0,1,1,0,1
4.344,0,1,1,0,1
4.346,2047,1,1,0,1
4.348,2047,1,1,0,1
4.35,0,1,1,0,1
4.352,0,1,1,0,1
4.354,2047,1,1,0,1
4.356,2047,1,1,0,1
4.358,0,1,1,0,1
4.36,0,1,1,0,1
4.362,1633,1,1,0,1
4.364,2047,1,1,0,1
4.366,265,1,1,0,1
4.368,0,1,1,0,1
4.37,2047,1,1,0,1
4.372,2047,1,1,0,1
4.374,0,1,1,0,1
4.376,0,1,1,0,1
4.378,556,1,1,0,1
4.38,2047,1,1,0,1
4.382,2047,1,1,0,1
4.384,0,1,1,0,1
4.386,1157,1,1,0,1
4.388,2047,1,1,0,1
4.39,1778,1,1,0,1
4.392,0,1,1,0,1
4.394,0,1,1,0,1
4.396,2047,1,1,0,1
4.398,2047,1,1,0,1
4.4,0,1,1,0,1
4.402,0,1,1,0,1
4.404,2047,1,1,0,1
4.406,2047,1,1,0,1
4.408,0,1,1,0,1
4.41,0,1,1,0,1
4.412,1643,1,1,0,1
4.414,2047,1,1,0,1
4.416,304,1,1,0,1
4.418,0,1,1,0,1
4.42,2047,1,1,0,1
4.422,2047,1,1,0,1
4.424,0,1,1,0,1
4.426,0,1,1,0,1
4.428,541,1,1,0,1
4.43,2047,1,1,0,1
4.432,2047,1,1,0,1
4.434,0,1,1,0,1
4.436,1116,1,1,0,1
4.438,2047,1,1,0,1
4.44,1831,1,1,0,1
4.442,0,1,1,0,1
4.444,0,1,1,0,1
4.446,2047,1,1,0,1
4.448,2047,1,1,0,1
4.45,0,1,1,0,1
4.452,0,1,1,0,1
4.454,2047,1,1,0,1
4.456,2047,1,1,0,1
4.458,0,1,1,0,1
4.46,0,1,1,0,1
4.462,1615,1,1,0,1
4.464,2047,1,1,0,1
4.466,291,1,1,0,1
4.468,0,1,1,0,1
4.47,2047,1,1,0,1
4.472,2047,1,1,0,1
4.474,4,1,1,0,1
4.476,0,1,1,0,1
4.478,526,1,1,0,1
4.48,2047,1,1,0,1
4.482,2047,1,1,0,1
4.484,0,1,1,0,1
4.486,1110,1,1,0,1
4.488,2047,1,1,0,1
4.49,1879,1,1,0,1
4.492,0,1,1,0,1
4.494,0,1,1,0,1
4.496,2047,1,1,0,1
4.498,2047,1,1,0,1
4.5,0,1,1,0,1
4.502,0,1,1,0,1
4.504,2047,1,1,0,1
4.506,2047,1,1,0,1
4.508,0,1,1,0,1
4.51,0,1,1,0,1
4.512,1591,1,1,0,1
4.514,2047,1,1,0,1
4.516,292,1,1,0,1
4.518,0,1,1,0,1
4.52,2047,1,1,0,1
4.522,2047,1,1,0,1
4.524,31,1,1,0,1
4.526,0,1,1,0,1
4.528,521,1,1,0,1
4.53,2047,1,1,0,1
4.532,2047,1,1,0,1
4.534,0,1,1,0,1
4.536,1070,1,1,0,1
4.538,2047,1,1,0,1
4.54,1896,1,1,0,1
4.542,0,1,1,0,1
4.544,0,1,1,0,1
4.546,2047,1,1,0,1
4.548,2047,1,1,0,1
4.55,0,1,1,0,1
4.552,0,1,1,0,1
4.554,2047,1,1,0,1
4.556,2047,1,1,0,1
4.558,0,1,1,0,1
4.56,0,1,1,0,1
4.562,1607,1,1,0,1
4.564,2047,1,1,0,1
4.566,309,1,1,0,1
4.568,0,1,1,0,1
4.57,2047,1,1,0,1
4.572,2047,1,1,0,1
4.574,74,1,1,0,1
4.576,0,1,1,0,1
4.578,504,1,1,0,1
4.58,2047,1,1,0,1
4.582,2047,1,1,0,1
4.584,0,1,1,0,1
4.586,1054,1,1,0,1
4.588,2047,1,1,0,1
4.59,1959,1,1,0,1
4.592,0,1,1,0,1
4.594,0,1,1,0,1
4.596,2047,1,1,0,1
4.598,2047,1,1,0,1
4.6,0,1,1,0,1
4.602,0,1,1,0,1
4.604,2047,1,1,0,1
4.606,2047,1,1,0,1
4.608,0,1,1,0,1
4.61,0,1,1,0,1
4.612,1609,1,1,0,1
4.614,2047,1,1,0,1
4.616,325,1,1,0,1
4.618,0,1,1,0,1
4.62,2047,1,1,0,1
4.622,2047,1,1,0,1
4.624,145,1,1,0,1
4.626,0,1,1,0,1
4.628,526,1,1,0,1
4.63,2047,1,1,0,1
4.632,2047,1,1,0,1
4.634,0,1,1,0,1
4.636,1042,1,1,0,1
4.638,2047,1,1,0,1
4.64,1988,1,1,0,1
4.642,0,1,1,0,1
4.644,0,1,1,0,1
4.646,2047,1,1,0,1
4.648,2047,1,1,0,1
4.65,0,1,1,0,1
4.652,0,1,1,0,1
4.654,2047,1,1,0,1
4.656,2047,1,1,0,1
4.658,0,1,1,0,1
4.66,0,1,1,0,1
4.662,1595,1,1,0,1
4.664,2047,1,1,0,1
4.666,430,1,1,0,1
4.668,0,1,1,0,1
4.67,2047,1,1,0,1
4.672,2047,1,1,0,1
4.674,185,1,1,0,1
4.676,0,1,1,0,1
4.678,509,1,1,0,1
4.68,2047,1,1,0,1
4.682,2047,1,1,0,1
4.684,0,1,1,0,1
4.686,1079,1,1,0,1
4.688,2047,1,1,0,1
4.69,2047,1,1,0,1
4.692,0,1,1,0,1
4.694,0,1,1,0,1
4.696,2047,1,1,0,1
4.698,2047,1,1,0,1
4.7,0,1,1,0,1
4.702,0,1,1,0,1
4.704,2047,1,1,0,1
4.706,2047,1,1,0,1
4.708,0,1,1,0,1
4.71,0,1,1,0,1
4.712,1613,1,1,0,1
4.714,2047,1,1,0,1
4.716,558,1,1,0,1
4.718,0,1,1,0,1
4.72,2047,1,1,0,1
4.722,2047,1,1,0,1
4.724,246,1,1,0,1
4.726,0,1,1,0,1
4.728,509,1,1,0,1
4.73,2047,1,1,0,1
4.732,2047,1,1,0,1
4.734,0,1,1,0,1
4.736,1094,1,1,0,1
4.738,2047,1,1,0,1
4.74,2047,1,1,0,1
4.742,0,1,1,0,1
4.744,0,1,1,0,1
4.746,2047,1,1,0,1
4.748,2047,1,1,0,1
4.75,0,1,1,0,1
4.752,0,1,1,0,1
4.754,2047,1,1,0,1
4.756,2047,1,1,0,1
4.758,0,1,1,0,1
4.76,0,1,1,0,1
4.762,1581,1,1,0,1
4.764,2047,1,1,0,1
4.766,613,1,1,0,1
4.768,0,1,1,0,1
4.77,2047,1,1,0,1
4.772,2047,1,1,0,1
4.774,276,1,1,0,1
4.776,0,1,1,0,1
4.778,486,1,1,0,1
4.78,2047,1,1,0,1
4.782,2047,1,1,0,1
4.784,0,1,1,0,1
4.786,1057,1,1,0,1
4.788,2047,1,1,0,1
4.79,2047,1,1,0,1
4.792,0,1,1,0,1
4.794,0,1,1,0,1
4.796,2047,1,1,0,1
4.798,2047,1,1,0,1
4.8,0,1,1,0,1
4.802,0,1,1,0,1
4.804,2047,1,1,0,1
4.806,2047,1,1,0,1
4.808,0,1,1,0,1
4.81,0,1,1,0,1
4.812,1519,1,1,0,1
4.814,2047,1,1,0,1
4.816,559,1,1,0,1
4.818,0,1,1,0,1
4.82,2047,1,1,0,1
4.822,2047,1,1,0,1
4.824,260,1,1,0,1
4.826,0,1,1,0,1
4.828,423,1,1,0,1
4.83,2047,1,1,0,1
4.832,2047,1,1,0,1
4.834,0,1,1,0,1
4.836,991,1,1,0,1
4.838,2047,1,1,0,1
4.84,2047,1,1,0,1
4.842,0,1,1,0,1
4.844,0,1,1,0,1
4.846,2047,1,1,0,1
4.848,2047,1,1,0,1
4.85,0,1,1,0,1
4.852,0,1,1,0,1
4.854,2047,1,1,0,1
4.856,2047,1,1,0,1
4.858,0,1,1,0,1
4.86,0,1,1,0,1
4.862,1501,1,1,0,1
4.864,2047,1,1,0,1
4.866,576,1,1,0,1
4.868,0,1,1,0,1
4.87,2047,1,1,0,1
4.872,2047,1,1,0,1
4.874,268,1,1,0,1
4.876,0,1,1,0,1
4.878,406,1,1,0,1
4.88,2047,1,1,0,1
4.882,2047,1,1,0,1
4.884,0,1,1,0,1
4.886,996,1,1,0,1
4.888,2047,1,1,0,1
4.89,2047,1,1,0,1
4.892,0,1,1,0,1
4.894,0,1,1,0,1
4.896,2047,1,1,0,1
4.898,2047,1,1,0,1
4.9,0,1,1,0,1
4.902,102,1,1,0,1
4.904,2047,1,1,0,1
4.906,2047,1,1,0,1
4.908,0,1,1,0,1
4.91,0,1,1,0,1
4.912,1711,1,1,0,1
4.914,2047,1,1,0,1
4.916,638,1,1,0,1
4.918,0,1,1,0,1
4.92,1983,1,1,0,1
4.922,2047,1,1,0,1
4.924,55,1,1,0,1
4.926,0,1,1,0,1
4.928,130,1,1,0,1
4.93,2047,1,1,0,1
4.932,2047,1,1,0,1
4.934,0,1,1,0,1
4.936,611,1,1,0,1
4.938,2047,1,1,0,1
4.94,1907,1,1,0,1
4.942,0,1,1,0,1
4.944,0,1,1,0,1
4.946,2047,1,1,0,1
4.948,2047,1,1,0,1
4.95,0,1,1,0,1
4.952,0,1,1,0,1
4.954,2047,1,1,0,1
4.956,2047,1,1,0,1
4.958,0,1,1,0,1
4.96,0,1,1,0,1
4.962,1418,1,1,0,1
4.964,2047,1,1,0,1
4.966,559,1,1,0,1
4.968,0,1,1,0,1
4.97,2047,1,1,0,1
4.972,2047,1,1,0,1
4.974,377,1,1,0,1
4.976,0,1,1,0,1
4.978,436,1,1,0,1
4.98,2047,1,1,0,1
4.982,2047,1,1,0,1
4.984,0,1,1,0,1
4.986,921,1,1,0,1
4.988,2047,1,1,0,1
4.99,2047,1,1,0,1
4.992,0,1,1,0,1
4.994,0,1,1,0,1
4.996,2047,1,1,0,1
4.998,2047,1,1,0,1
5,0,1,1,0,1
5.002,0,1,1,0,1
5.004,2047,1,1,0,1
5.006,2047,1,1,0,1
5.008,0,1,1,0,1
5.01,0,1,1,0,1
5.012,1516,1,1,0,1
5.014,2047,1,1,0,1
5.016,642,1,1,0,1
5.018,0,1,1,0,1
5.02,2047,1,1,0,1
5.022,2047,1,1,0,1
5.024,451,1,1,0,1
5.026,0,1,1,0,1
5.028,456,1,1,0,1
5.03,2047,1,1,0,1
5.032,2047,1,1,0,1
5.034,0,1,1,0,1
5.036,923,1,1,0,1
5.038,2047,1,1,0,1
5.04,2047,1,1,0,1
5.042,0,1,1,0,1
5.044,0,1,1,0,1
5.046,2047,1,1,0,1
5.048,2047,1,1,0,1
5.05,0,1,1,0,1
5.052,0,1,1,0,1
5.054,2047,1,1,0,1
5.056,2047,1,1,0,1
5.058,0,1,1,0,1
5.06,0,1,1,0,1
5.062,1542,1,1,0,1
5.064,2047,1,1,0,1
5.066,756,1,1,0,1
5.068,0,1,1,0,1
5.07,2047,1,1,0,1
5.072,2047,1,1,0,1
5.074,490,1,1,0,1
5.076,0,1,1,0,1
5.078,424,1,1,0,1
5.08,2047,1,1,0,1
5.082,2047,1,1,0,1
5.084,0,1,1,0,1
5.086,956,1,1,0,1
5.088,2047,1,1,0,1
5.09,2047,1,1,0,1
5.092,0,1,1,0,1
5.094,0,1,1,0,1
5.096,2047,1,1,0,1
5.098,2047,1,1,0,1
5.1,0,1,1,0,1
5.102,0,1,1,0,1
5.104,2047,1,1,0,1
5.106,2047,1,1,0,1
5.108,0,1,1,0,1
5.11,0,1,1,0,1
5.112,1531,1,1,0,1
5.114,2047,1,1,0,1
5.116,862,1,1,0,1
5.118,0,1,1,0,1
5.12,2047,1,1,0,1
5.122,2047,1,1,0,1
5.124,562,1,1,0,1
5.126,0,1,1,0,1
5.128,438,1,1,0,1
5.13,2047,1,1,0,1
5.132,2047,1,1,0,1
5.134,0,1,1,0,1
5.136,1003,1,1,0,1
5.138,2047,1,1,0,1
5.14,2047,1,1,0,1
5.142,0,1,1,0,1
5.144,0,1,1,0,1
5.146,2047,1,1,0,1
5.148,2047,1,1,0,1
5.15,0,1,1,0,1
5.152,0,1,1,0,1
5.154,2047,1,1,0,1
5.156,2047,1,1,0,1
5.158,0,1,1,0,1
5.16,0,1,1,0,1
5.162,1515,1,1,0,1
5.164,2047,1,1,0,1
5.166,941,1,1,0,1
5.168,0,1,1,0,1
5.17,2047,1,1,0,1
5.172,2047,1,1,0,1
5.174,571,1,1,0,1
5.176,0,1,1,0,1
5.178,369,1,1,0,1
5.18,2047,1,1,0,1
5.182,2047,1,1,0,1
5.184,0,1,1,0,1
5.186,955,1,1,0,1
5.188,2047,1,1,0,1
5.19,2047,1,1,0,1
5.192,0,1,1,0,1
5.194,0,1,1,0,1
5.196,2047,1,1,0,1
5.198,2047,1,1,0,1
5.2,0,1,1,0,1
5.202,0,1,1,0,1
5.204,2047,1,1,0,1
5.206,2047,1,1,0,1
5.208,0,1,1,0,1
5.21,0,1,1,0,1
5.212,1411,1,1,0,1
5.214,2047,1,1,0,1
5.216,867,1,1,0,1
5.218,0,1,1,0,1
5.22,2047,1,1,0,1
5.222,2047,1,1,0,1
5.224,509,1,1,0,1
5.226,0,1,1,0,1
5.228,285,1,1,0,1
5.23,2047,1,1,0,1
5.232,2047,1,1,0,1
5.234,0,1,1,0,1
5.236,810,1,1,0,1
5.238,2047,1,1,0,1
5.24,2047,1,1,0,1
5.242,0,1,1,0,1
5.244,0,1,1,0,1
5.246,2047,1,1,0,1
5.248,2047,1,1,0,1
5.25,0,1,1,0,1
5.252,0,1,1,0,1
5.254,2047,1,1,0,1
5.256,2047,1,1,0,1
5.258,0,1,1,0,1
5.26,0,1,1,0,1
5.262,1300,1,1,0,1
5.264,2047,1,1,0,1
5.266,757,1,1,0,1
5.268,0,1,1,0,1
5.27,1974,1,1,0,1
5.272,2047,1,1,0,1
5.274,489,1,1,0,1
5.276,0,1,1,0,1
5.278,226,1,1,0,1
5.28,2047,1,1,0,1
5.282,2047,1,1,0,1
5.284,0,1,1,0,1
5.286,765,1,1,0,1
5.288,2047,1,1,0,1
5.29,2047,1,1,0,1
5.292,0,1,1,0,1
5.294,0,1,1,0,1
5.296,2047,1,1,0,1
5.298,2047,1,1,0,1
5.3,0,1,1,0,1
5.302,0,1,1,0,1
5.304,2047,1,1,0,1
5.306,2047,1,1,0,1
5.308,0,1,1,0,1
5.31,0,1,1,0,1
5.312,1271,1,1,0,1
5.314,2047,1,1,0,1
5.316,757,1,1,0,1
5.318,0,1,1,0,1
5.32,1938,1,1,0,1
5.322,2047,1,1,0,1
5.324,505,1,1,0,1
5.326,0,1,1,0,1
5.328,233,1,1,0,1
5.33,2047,1,1,0,1
5.332,2047,1,1,0,1
5.334,0,1,1,0,1
5.336,756,1,1,0,1
5.338,2047,1,1,0,1
5.34,2047,1,1,0,1
5.342,0,1,1,0,1
5.344,0,1,1,0,1
5.346,2047,1,1,0,1
5.348,2047,1,1,0,1
5.35,0,1,1,0,1
5.352,0,1,1,0,1
5.354,2047,1,1,0,1
5.356,2047,1,1,0,1
5.358,0,1,1,0,1
5.36,0,1,1,0,1
5.362,1299,1,1,0,1
5.364,2047,1,1,0,1
5.366,787,1,1,0,1
5.368,0,1,1,0,1
5.37,1951,1,1,0,1
5.372,2047,1,1,0,1
5.374,586,1,1,0,1
5.376,0,1,1,0,1
5.378,255,1,1,0,1
5.38,2047,1,1,0,1
5.382,2047,1,1,0,1
5.384,0,1,1,0,1
5.386,724,1,1,0,1
5.388,2047,1,1,0,1
5.39,2047,1,1,0,1
5.392,0,1,1,0,1
5.394,0,1,1,0,1
5.396,2047,1,1,0,1
5.398,2047,1,1,0,1
5.4,0,1,1,0,1
5.402,0,1,1,0,1
5.404,2047,1,1,0,1
5.406,2047,1,1,0,1
5.408,0,1,1,0,1
5.41,0,1,1,0,1
5.412,1295,1,1,0,1
5.414,2047,1,1,0,1
5.416,806,1,1,0,1
5.418,0,1,1,0,1
5.42,1925,1,1,0,1
5.422,2047,1,1,0,1
5.424,589,1,1,0,1
5.426,0,1,1,0,1
5.428,214,1,1,0,1
5.43,2047,1,1,0,1
5.432,2047,1,1,0,1
5.434,0,1,1,0,1
5.436,693,1,1,0,1
5.438,2047,1,1,0,1
5.44,2047,1,1,0,1
5.442,0,1,1,0,1
5.444,0,1,1,0,1
5.446,2047,1,1,0,1
5.448,2047,1,1,0,1
5.45,0,1,1,0,1
5.452,0,1,1,0,1
5.454,2047,1,1,0,1
5.456,2047,1,1,0,1
5.458,0,1,1,0,1
5.46,0,1,1,0,1
5.462,1330,1,1,0,1
5.464,2047,1,1,0,1
5.466,920,1,1,0,1
5.468,0,1,1,0,1
5.47,1958,1,1,0,1
5.472,2047,1,1,0,1
5.474,648,1,1,0,1
5.476,0,1,1,0,1
5.478,232,1,1,0,1
5.48,2047,1,1,0,1
5.482,2047,1,1,0,1
5.484,0,1,1,0,1
5.486,744,1,1,0,1
5.488,2047,1,1,0,1
5.49,2047,1,1,0,1
5.492,0,1,1,0,1
5.494,0,1,1,0,1
5.496,2047,1,1,0,1
5.498,2047,1,1,0,1
5.5,0,1,1,0,1
5.502,0,1,1,0,1
5.504,2047,1,1,0,1
5.506,2047,1,1,0,1
5.508,0,1,1,0,1
5.51,0,1,1,0,1
5.512,1329,1,1,0,1
5.514,2047,1,1,0,1
5.516,1041,1,1,0,1
5.518,0,1,1,0,1
5.52,1967,1,1,0,1
5.522,2047,1,1,0,1
5.524,690,1,1,0,1
5.526,0,1,1,0,1
5.528,221,1,1,0,1
5.53,2047,1,1,0,1
5.532,2047,1,1,0,1
5.534,0,1,1,0,1
5.536,723,1,1,0,1
5.538,2047,1,1,0,1
5.54,2047,1,1,0,1
5.542,0,1,1,0,1
5.544,0,1,1,0,1
5.546,2047,1,1,0,1
5.548,2047,1,1,0,1
5.55,0,1,1,0,1
5.552,0,1,1,0,1
5.554,2047,1,1,0,1
5.556,2047,1,1,0,1
5.558,0,1,1,0,1
5.56,0,1,1,0,1
5.562,1289,1,1,0,1
5.564,2047,1,1,0,1
5.566,1095,1,1,0,1
5.568,0,1,1,0,1
5.57,1976,1,1,0,1
5.572,2047,1,1,0,1
5.574,732,1,1,0,1
5.576,0,1,1,0,1
5.578,216,1,1,0,1
5.58,2047,1,1,0,1
5.582,2047,1,1,0,1
5.584,0,1,1,0,1
5.586,742,1,1,0,1
5.588,2047,1,1,0,1
5.59,2047,1,1,0,1
5.592,0,1,1,0,1
5.594,0,1,1,0,1
5.596,2047,1,1,0,1
5.598,2047,1,1,0,1
5.6,0,1,1,0,1
5.602,0,1,1,0,1
5.604,2047,1,1,0,1
5.606,2047,1,1,0,1
5.608,0,1,1,0,1
5.61,0,1,1,0,1
5.612,1244,1,1,0,1
5.614,2047,1,1,0,1
5.616,1084,1,1,0,1
5.618,0,1,1,0,1
5.62,1927,1,1,0,1
5.622,2047,1,1,0,1
5.624,732,1,1,0,1
5.626,0,1,1,0,1
5.628,173,1,1,0,1
5.63,2047,1,1,0,1
5.632,2047,1,1,0,1
5.634,0,1,1,0,1
5.636,687,1,1,0,1
5.638,2047,1,1,0,1
5.64,2047,1,1,0,1
5.642,0,1,1,0,1
5.644,0,1,1,0,1
5.646,2047,1,1,0,1
5.648,2047,1,1,0,1
5.65,0,1,1,0,1
5.652,0,1,1,0,1
5.654,2047,1,1,0,1
5.656,2047,1,1,0,1
5.658,0,1,1,0,1
5.66,0,1,1,0,1
5.662,1252,1,1,0,1
5.664,2047,1,1,0,1
5.666,1107,1,1,0,1
5.668,0,1,1,0,1
5.67,1917,1,1,0,1
5.672,2047,1,1,0,1
5.674,798,1,1,0,1
5.676,0,1,1,0,1
5.678,181,1,1,0,1
5.68,2047,1,1,0,1
5.682,2047,1,1,0,1
5.684,0,1,1,0,1
5.686,672,1,1,0,1
5.688,2047,1,1,0,1
5.69,2047,1,1,0,1
5.692,0,1,1,0,1
5.694,0,1,1,0,1
5.696,2047,1,1,0,1
