#Digilent WaveForms Logic Analyzer Acquisition
#Device Name: Discovery2
#Serial Number: SN:210321AA2ABB
#Date Time: 2024-08-13 19:49:56.721
#Sample rate: 500Hz
#Samples: 4096

Time (s),Data,DV,MISO,MOSI,SCK
-2.494,4039,1,1,0,1
-2.492,4059,1,1,0,1
-2.49,4061,1,1,0,1
-2.488,4061,1,1,0,1
-2.486,3995,1,1,0,1
-2.484,3833,1,1,0,1
-2.482,3599,1,1,0,1
-2.48,3282,1,1,0,1
-2.478,2857,1,1,0,1
-2.476,2293,1,1,0,1
-2.474,1610,1,1,0,1
-2.472,860,1,1,0,1
-2.47,145,1,1,0,1
-2.468,8,1,1,0,1
-2.466,0,1,1,0,1
-2.464,0,1,1,0,1
-2.462,0,1,1,0,1
-2.46,0,1,1,0,1
-2.458,0,1,1,0,1
-2.456,0,1,1,0,1
-2.454,0,1,1,0,1
-2.452,0,1,1,0,1
-2.45,0,1,1,0,1
-2.448,0,1,1,0,1
-2.446,0,1,1,0,1
-2.444,0,1,1,0,1
-2.442,0,1,1,0,1
-2.44,0,1,1,0,1
-2.438,0,1,1,0,1
-2.436,0,1,1,0,1
-2.434,12,1,1,0,1
-2.432,140,1,1,0,1
-2.43,351,1,1,0,1
-2.428,599,1,1,0,1
-2.426,851,1,1,0,1
-2.424,1091,1,1,0,1
-2.422,1313,1,1,0,1
-2.42,1529,1,1,0,1
-2.418,1754,1,1,0,1
-2.416,1991,1,1,0,1
-2.414,2234,1,1,0,1
-2.412,2466,1,1,0,1
-2.41,2666,1,1,0,1
-2.408,2825,1,1,0,1
-2.406,2938,1,1,0,1
-2.404,3027,1,1,0,1
-2.402,3111,1,1,0,1
-2.4,3197,1,1,0,1
-2.398,3291,1,1,0,1
-2.396,3382,1,1,0,1
-2.394,3450,1,1,0,1
-2.392,3487,1,1,0,1
-2.39,3493,1,1,0,1
-2.388,3477,1,1,0,1
-2.386,3462,1,1,0,1
-2.384,3463,1,1,0,1
-2.382,3482,1,1,0,1
-2.38,3509,1,1,0,1
-2.378,3527,1,1,0,1
-2.376,3525,1,1,0,1
-2.374,3494,1,1,0,1
-2.372,3443,1,1,0,1
-2.37,3389,1,1,0,1
-2.368,3353,1,1,0,1
-2.366,3341,1,1,0,1
-2.364,3346,1,1,0,1
-2.362,3355,1,1,0,1
-2.36,3353,1,1,0,1
-2.358,3326,1,1,0,1
-2.356,3283,1,1,0,1
-2.354,3229,1,1,0,1
-2.352,3187,1,1,0,1
-2.35,3167,1,1,0,1
-2.348,3173,1,1,0,1
-2.346,3187,1,1,0,1
-2.344,3198,1,1,0,1
-2.342,3194,1,1,0,1
-2.34,3171,1,1,0,1
-2.338,3135,1,1,0,1
-2.336,3109,1,1,0,1
-2.334,3101,1,1,0,1
-2.332,3119,1,1,0,1
-2.33,3153,1,1,0,1
-2.328,3185,1,1,0,1
-2.326,3204,1,1,0,1
-2.324,3198,1,1,0,1
-2.322,3179,1,1,0,1
-2.32,3159,1,1,0,1
-2.318,3157,1,1,0,1
-2.316,3181,1,1,0,1
-2.314,3227,1,1,0,1
-2.312,3279,1,1,0,1
-2.31,3321,1,1,0,1
-2.308,3343,1,1,0,1
-2.306,3345,1,1,0,1
-2.304,3341,1,1,0,1
-2.302,3354,1,1,0,1
-2.3,3391,1,1,0,1
-2.298,3459,1,1,0,1
-2.296,3533,1,1,0,1
-2.294,3603,1,1,0,1
-2.292,3645,1,1,0,1
-2.29,3662,1,1,0,1
-2.288,3662,1,1,0,1
-2.286,3667,1,1,0,1
-2.284,3693,1,1,0,1
-2.282,3743,1,1,0,1
-2.28,3811,1,1,0,1
-2.278,3877,1,1,0,1
-2.276,3921,1,1,0,1
-2.274,3933,1,1,0,1
-2.272,3925,1,1,0,1
-2.27,3911,1,1,0,1
-2.268,3911,1,1,0,1
-2.266,3930,1,1,0,1
-2.264,3958,1,1,0,1
-2.262,3983,1,1,0,1
-2.26,3991,1,1,0,1
-2.258,3974,1,1,0,1
-2.256,3929,1,1,0,1
-2.254,3870,1,1,0,1
-2.252,3815,1,1,0,1
-2.25,3780,1,1,0,1
-2.248,3755,1,1,0,1
-2.246,3731,1,1,0,1
-2.244,3687,1,1,0,1
-2.242,3619,1,1,0,1
-2.24,3519,1,1,0,1
-2.238,3407,1,1,0,1
-2.236,3293,1,1,0,1
-2.234,3195,1,1,0,1
-2.232,3117,1,1,0,1
-2.23,3047,1,1,0,1
-2.228,2971,1,1,0,1
-2.226,2875,1,1,0,1
-2.224,2750,1,1,0,1
-2.222,2606,1,1,0,1
-2.22,2460,1,1,0,1
-2.218,2332,1,1,0,1
-2.216,2230,1,1,0,1
-2.214,2147,1,1,0,1
-2.212,2073,1,1,0,1
-2.21,1983,1,1,0,1
-2.208,1877,1,1,0,1
-2.206,1750,1,1,0,1
-2.204,1620,1,1,0,1
-2.202,1507,1,1,0,1
-2.2,1422,1,1,0,1
-2.198,1363,1,1,0,1
-2.196,1319,1,1,0,1
-2.194,1273,1,1,0,1
-2.192,1211,1,1,0,1
-2.19,1134,1,1,0,1
-2.188,1048,1,1,0,1
-2.186,973,1,1,0,1
-2.184,921,1,1,0,1
-2.182,897,1,1,0,1
-2.18,890,1,1,0,1
-2.178,886,1,1,0,1
-2.176,870,1,1,0,1
-2.174,835,1,1,0,1
-2.172,786,1,1,0,1
-2.17,740,1,1,0,1
-2.168,715,1,1,0,1
-2.166,717,1,1,0,1
-2.164,738,1,1,0,1
-2.162,766,1,1,0,1
-2.16,785,1,1,0,1
-2.158,786,1,1,0,1
-2.156,771,1,1,0,1
-2.154,752,1,1,0,1
-2.152,749,1,1,0,1
-2.15,771,1,1,0,1
-2.148,815,1,1,0,1
-2.146,871,1,1,0,1
-2.144,921,1,1,0,1
-2.142,948,1,1,0,1
-2.14,951,1,1,0,1
-2.138,943,1,1,0,1
-2.136,945,1,1,0,1
-2.134,966,1,1,0,1
-2.132,1009,1,1,0,1
-2.13,1065,1,1,0,1
-2.128,1116,1,1,0,1
-2.126,1149,1,1,0,1
-2.124,1161,1,1,0,1
-2.122,1154,1,1,0,1
-2.12,1147,1,1,0,1
-2.118,1159,1,1,0,1
-2.116,1191,1,1,0,1
-2.114,1241,1,1,0,1
-2.112,1296,1,1,0,1
-2.11,1338,1,1,0,1
-2.108,1359,1,1,0,1
-2.106,1363,1,1,0,1
-2.104,1361,1,1,0,1
-2.102,1373,1,1,0,1
-2.1,1410,1,1,0,1
-2.098,1466,1,1,0,1
-2.096,1534,1,1,0,1
-2.094,1597,1,1,0,1
-2.092,1637,1,1,0,1
-2.09,1651,1,1,0,1
-2.088,1649,1,1,0,1
-2.086,1652,1,1,0,1
-2.084,1675,1,1,0,1
-2.082,1718,1,1,0,1
-2.08,1771,1,1,0,1
-2.078,1814,1,1,0,1
-2.076,1835,1,1,0,1
-2.074,1827,1,1,0,1
-2.072,1797,1,1,0,1
-2.07,1764,1,1,0,1
-2.068,1748,1,1,0,1
-2.066,1755,1,1,0,1
-2.064,1779,1,1,0,1
-2.062,1811,1,1,0,1
-2.06,1835,1,1,0,1
-2.058,1845,1,1,0,1
-2.056,1841,1,1,0,1
-2.054,1830,1,1,0,1
-2.052,1835,1,1,0,1
-2.05,1867,1,1,0,1
-2.048,1917,1,1,0,1
-2.046,1974,1,1,0,1
-2.044,2015,1,1,0,1
-2.042,2031,1,1,0,1
-2.04,2020,1,1,0,1
-2.038,1988,1,1,0,1
-2.036,1955,1,1,0,1
-2.034,1937,1,1,0,1
-2.032,1939,1,1,0,1
-2.03,1949,1,1,0,1
-2.028,1946,1,1,0,1
-2.026,1917,1,1,0,1
-2.024,1861,1,1,0,1
-2.022,1781,1,1,0,1
-2.02,1701,1,1,0,1
-2.018,1637,1,1,0,1
-2.016,1597,1,1,0,1
-2.014,1578,1,1,0,1
-2.012,1569,1,1,0,1
-2.01,1551,1,1,0,1
-2.008,1515,1,1,0,1
-2.006,1465,1,1,0,1
-2.004,1411,1,1,0,1
-2.002,1373,1,1,0,1
-2,1361,1,1,0,1
-1.998,1372,1,1,0,1
-1.996,1397,1,1,0,1
-1.994,1416,1,1,0,1
-1.992,1417,1,1,0,1
-1.99,1395,1,1,0,1
-1.988,1366,1,1,0,1
-1.986,1350,1,1,0,1
-1.984,1361,1,1,0,1
-1.982,1395,1,1,0,1
-1.98,1442,1,1,0,1
-1.978,1485,1,1,0,1
-1.976,1510,1,1,0,1
-1.974,1514,1,1,0,1
-1.972,1502,1,1,0,1
-1.97,1492,1,1,0,1
-1.968,1493,1,1,0,1
-1.966,1511,1,1,0,1
-1.964,1542,1,1,0,1
-1.962,1569,1,1,0,1
-1.96,1590,1,1,0,1
-1.958,1610,1,1,0,1
-1.956,1638,1,1,0,1
-1.954,1698,1,1,0,1
-1.952,1819,1,1,0,1
-1.95,2017,1,1,0,1
-1.948,2294,1,1,0,1
-1.946,2644,1,1,0,1
-1.944,3037,1,1,0,1
-1.942,3439,1,1,0,1
-1.94,3811,1,1,0,1
-1.938,4041,1,1,0,1
-1.936,4061,1,1,0,1
-1.934,4061,1,1,0,1
-1.932,4061,1,1,0,1
-1.93,4015,1,1,0,1
-1.928,3846,1,1,0,1
-1.926,3557,1,1,0,1
-1.924,3145,1,1,0,1
-1.922,2595,1,1,0,1
-1.92,1914,1,1,0,1
-1.918,1165,1,1,0,1
-1.916,410,1,1,0,1
-1.914,25,1,1,0,1
-1.912,0,1,1,0,1
-1.91,0,1,1,0,1
-1.908,0,1,1,0,1
-1.906,0,1,1,0,1
-1.904,0,1,1,0,1
-1.902,0,1,1,0,1
-1.9,0,1,1,0,1
-1.898,0,1,1,0,1
-1.896,0,1,1,0,1
-1.894,0,1,1,0,1
-1.892,0,1,1,0,1
-1.89,0,1,1,0,1
-1.888,0,1,1,0,1
-1.886,0,1,1,0,1
-1.884,0,1,1,0,1
-1.882,0,1,1,0,1
-1.88,0,1,1,0,1
-1.878,47,1,1,0,1
-1.876,186,1,1,0,1
-1.874,369,1,1,0,1
-1.872,573,1,1,0,1
-1.87,796,1,1,0,1
-1.868,1046,1,1,0,1
-1.866,1317,1,1,0,1
-1.864,1594,1,1,0,1
-1.862,1863,1,1,0,1
-1.86,2101,1,1,0,1
-1.858,2297,1,1,0,1
-1.856,2450,1,1,0,1
-1.854,2578,1,1,0,1
-1.852,2698,1,1,0,1
-1.85,2821,1,1,0,1
-1.848,2947,1,1,0,1
-1.846,3063,1,1,0,1
-1.844,3161,1,1,0,1
-1.842,3222,1,1,0,1
-1.84,3246,1,1,0,1
-1.838,3250,1,1,0,1
-1.836,3251,1,1,0,1
-1.834,3267,1,1,0,1
-1.832,3295,1,1,0,1
-1.83,3334,1,1,0,1
-1.828,3358,1,1,0,1
-1.826,3363,1,1,0,1
-1.824,3341,1,1,0,1
-1.822,3299,1,1,0,1
-1.82,3255,1,1,0,1
-1.818,3227,1,1,0,1
-1.816,3221,1,1,0,1
-1.814,3234,1,1,0,1
-1.812,3246,1,1,0,1
-1.81,3245,1,1,0,1
-1.808,3220,1,1,0,1
-1.806,3173,1,1,0,1
-1.804,3119,1,1,0,1
-1.802,3084,1,1,0,1
-1.8,3069,1,1,0,1
-1.798,3082,1,1,0,1
-1.796,3103,1,1,0,1
-1.794,3119,1,1,0,1
-1.792,3117,1,1,0,1
-1.79,3091,1,1,0,1
-1.788,3053,1,1,0,1
-1.786,3027,1,1,0,1
-1.784,3022,1,1,0,1
-1.782,3043,1,1,0,1
-1.78,3082,1,1,0,1
-1.778,3117,1,1,0,1
-1.776,3138,1,1,0,1
-1.774,3133,1,1,0,1
-1.772,3116,1,1,0,1
-1.77,3100,1,1,0,1
-1.768,3103,1,1,0,1
-1.766,3131,1,1,0,1
-1.764,3177,1,1,0,1
-1.762,3226,1,1,0,1
-1.76,3266,1,1,0,1
-1.758,3286,1,1,0,1
-1.756,3289,1,1,0,1
-1.754,3287,1,1,0,1
-1.752,3303,1,1,0,1
-1.75,3343,1,1,0,1
-1.748,3406,1,1,0,1
-1.746,3477,1,1,0,1
-1.744,3539,1,1,0,1
-1.742,3579,1,1,0,1
-1.74,3602,1,1,0,1
-1.738,3611,1,1,0,1
-1.736,3631,1,1,0,1
-1.734,3671,1,1,0,1
-1.732,3735,1,1,0,1
-1.73,3811,1,1,0,1
-1.728,3882,1,1,0,1
-1.726,3933,1,1,0,1
-1.724,3956,1,1,0,1
-1.722,3957,1,1,0,1
-1.72,3951,1,1,0,1
-1.718,3965,1,1,0,1
-1.716,3999,1,1,0,1
-1.714,4043,1,1,0,1
-1.712,4059,1,1,0,1
-1.71,4061,1,1,0,1
-1.708,4061,1,1,0,1
-1.706,4045,1,1,0,1
-1.704,4003,1,1,0,1
-1.702,3962,1,1,0,1
-1.7,3939,1,1,0,1
-1.698,3927,1,1,0,1
-1.696,3917,1,1,0,1
-1.694,3889,1,1,0,1
-1.692,3830,1,1,0,1
-1.69,3741,1,1,0,1
-1.688,3631,1,1,0,1
-1.686,3517,1,1,0,1
-1.684,3415,1,1,0,1
-1.682,3331,1,1,0,1
-1.68,3251,1,1,0,1
-1.678,3163,1,1,0,1
-1.676,3053,1,1,0,1
-1.674,2919,1,1,0,1
-1.672,2766,1,1,0,1
-1.67,2614,1,1,0,1
-1.668,2481,1,1,0,1
-1.666,2373,1,1,0,1
-1.664,2281,1,1,0,1
-1.662,2193,1,1,0,1
-1.66,2092,1,1,0,1
-1.658,1969,1,1,0,1
-1.656,1831,1,1,0,1
-1.654,1689,1,1,0,1
-1.652,1565,1,1,0,1
-1.65,1467,1,1,0,1
-1.648,1393,1,1,0,1
-1.646,1333,1,1,0,1
-1.644,1271,1,1,0,1
-1.642,1196,1,1,0,1
-1.64,1102,1,1,0,1
-1.638,1004,1,1,0,1
-1.636,919,1,1,0,1
-1.634,859,1,1,0,1
-1.632,825,1,1,0,1
-1.63,807,1,1,0,1
-1.628,791,1,1,0,1
-1.626,764,1,1,0,1
-1.624,719,1,1,0,1
-1.622,661,1,1,0,1
-1.62,607,1,1,0,1
-1.618,577,1,1,0,1
-1.616,578,1,1,0,1
-1.614,601,1,1,0,1
-1.612,630,1,1,0,1
-1.61,651,1,1,0,1
-1.608,650,1,1,0,1
-1.606,630,1,1,0,1
-1.604,605,1,1,0,1
-1.602,595,1,1,0,1
-1.6,611,1,1,0,1
-1.598,654,1,1,0,1
-1.596,706,1,1,0,1
-1.594,751,1,1,0,1
-1.592,775,1,1,0,1
-1.59,777,1,1,0,1
-1.588,767,1,1,0,1
-1.586,765,1,1,0,1
-1.584,785,1,1,0,1
-1.582,826,1,1,0,1
-1.58,878,1,1,0,1
-1.578,926,1,1,0,1
-1.576,958,1,1,0,1
-1.574,969,1,1,0,1
-1.572,961,1,1,0,1
-1.57,951,1,1,0,1
-1.568,959,1,1,0,1
-1.566,989,1,1,0,1
-1.564,1039,1,1,0,1
-1.562,1091,1,1,0,1
-1.56,1129,1,1,0,1
-1.558,1143,1,1,0,1
-1.556,1135,1,1,0,1
-1.554,1123,1,1,0,1
-1.552,1126,1,1,0,1
-1.55,1150,1,1,0,1
-1.548,1195,1,1,0,1
-1.546,1247,1,1,0,1
-1.544,1294,1,1,0,1
-1.542,1318,1,1,0,1
-1.54,1320,1,1,0,1
-1.538,1311,1,1,0,1
-1.536,1313,1,1,0,1
-1.534,1336,1,1,0,1
-1.532,1382,1,1,0,1
-1.53,1442,1,1,0,1
-1.528,1498,1,1,0,1
-1.526,1539,1,1,0,1
-1.524,1553,1,1,0,1
-1.522,1546,1,1,0,1
-1.52,1539,1,1,0,1
-1.518,1548,1,1,0,1
-1.516,1581,1,1,0,1
-1.514,1627,1,1,0,1
-1.512,1674,1,1,0,1
-1.51,1705,1,1,0,1
-1.508,1713,1,1,0,1
-1.506,1700,1,1,0,1
-1.504,1679,1,1,0,1
-1.502,1671,1,1,0,1
-1.5,1684,1,1,0,1
-1.498,1721,1,1,0,1
-1.496,1772,1,1,0,1
-1.494,1819,1,1,0,1
-1.492,1847,1,1,0,1
-1.49,1859,1,1,0,1
-1.488,1861,1,1,0,1
-1.486,1870,1,1,0,1
-1.484,1899,1,1,0,1
-1.482,1947,1,1,0,1
-1.48,1997,1,1,0,1
-1.478,2034,1,1,0,1
-1.476,2045,1,1,0,1
-1.474,2025,1,1,0,1
-1.472,1981,1,1,0,1
-1.47,1934,1,1,0,1
-1.468,1905,1,1,0,1
-1.466,1894,1,1,0,1
-1.464,1895,1,1,0,1
-1.462,1889,1,1,0,1
-1.46,1859,1,1,0,1
-1.458,1796,1,1,0,1
-1.456,1707,1,1,0,1
-1.454,1611,1,1,0,1
-1.452,1533,1,1,0,1
-1.45,1485,1,1,0,1
-1.448,1461,1,1,0,1
-1.446,1451,1,1,0,1
-1.444,1437,1,1,0,1
-1.442,1407,1,1,0,1
-1.44,1363,1,1,0,1
-1.438,1309,1,1,0,1
-1.436,1267,1,1,0,1
-1.434,1251,1,1,0,1
-1.432,1265,1,1,0,1
-1.43,1294,1,1,0,1
-1.428,1322,1,1,0,1
-1.426,1335,1,1,0,1
-1.424,1329,1,1,0,1
-1.422,1308,1,1,0,1
-1.42,1289,1,1,0,1
-1.418,1289,1,1,0,1
-1.416,1316,1,1,0,1
-1.414,1361,1,1,0,1
-1.412,1409,1,1,0,1
-1.41,1443,1,1,0,1
-1.408,1455,1,1,0,1
-1.406,1449,1,1,0,1
-1.404,1434,1,1,0,1
-1.402,1426,1,1,0,1
-1.4,1433,1,1,0,1
-1.398,1452,1,1,0,1
-1.396,1471,1,1,0,1
-1.394,1490,1,1,0,1
-1.392,1509,1,1,0,1
-1.39,1533,1,1,0,1
-1.388,1589,1,1,0,1
-1.386,1699,1,1,0,1
-1.384,1884,1,1,0,1
-1.382,2157,1,1,0,1
-1.38,2509,1,1,0,1
-1.378,2914,1,1,0,1
-1.376,3333,1,1,0,1
-1.374,3724,1,1,0,1
-1.372,4014,1,1,0,1
-1.37,4059,1,1,0,1
-1.368,4061,1,1,0,1
-1.366,4061,1,1,0,1
-1.364,4014,1,1,0,1
-1.362,3845,1,1,0,1
-1.36,3554,1,1,0,1
-1.358,3131,1,1,0,1
-1.356,2559,1,1,0,1
-1.354,1850,1,1,0,1
-1.352,1068,1,1,0,1
-1.35,283,1,1,0,1
-1.348,15,1,1,0,1
-1.346,0,1,1,0,1
-1.344,0,1,1,0,1
-1.342,0,1,1,0,1
-1.34,0,1,1,0,1
-1.338,0,1,1,0,1
-1.336,0,1,1,0,1
-1.334,0,1,1,0,1
-1.332,0,1,1,0,1
-1.33,0,1,1,0,1
-1.328,0,1,1,0,1
-1.326,0,1,1,0,1
-1.324,0,1,1,0,1
-1.322,0,1,1,0,1
-1.32,0,1,1,0,1
-1.318,0,1,1,0,1
-1.316,0,1,1,0,1
-1.314,0,1,1,0,1
-1.312,18,1,1,0,1
-1.31,136,1,1,0,1
-1.308,306,1,1,0,1
-1.306,502,1,1,0,1
-1.304,721,1,1,0,1
-1.302,965,1,1,0,1
-1.3,1233,1,1,0,1
-1.298,1512,1,1,0,1
-1.296,1785,1,1,0,1
-1.294,2030,1,1,0,1
-1.292,2233,1,1,0,1
-1.29,2391,1,1,0,1
-1.288,2515,1,1,0,1
-1.286,2623,1,1,0,1
-1.284,2733,1,1,0,1
-1.282,2846,1,1,0,1
-1.28,2956,1,1,0,1
-1.278,3047,1,1,0,1
-1.276,3111,1,1,0,1
-1.274,3138,1,1,0,1
-1.272,3139,1,1,0,1
-1.27,3130,1,1,0,1
-1.268,3131,1,1,0,1
-1.266,3150,1,1,0,1
-1.264,3178,1,1,0,1
-1.262,3199,1,1,0,1
-1.26,3206,1,1,0,1
-1.258,3183,1,1,0,1
-1.256,3141,1,1,0,1
-1.254,3091,1,1,0,1
-1.252,3053,1,1,0,1
-1.25,3039,1,1,0,1
-1.248,3047,1,1,0,1
-1.246,3059,1,1,0,1
-1.244,3061,1,1,0,1
-1.242,3045,1,1,0,1
-1.24,3007,1,1,0,1
-1.238,2962,1,1,0,1
-1.236,2925,1,1,0,1
-1.234,2914,1,1,0,1
-1.232,2925,1,1,0,1
-1.23,2953,1,1,0,1
-1.228,2977,1,1,0,1
-1.226,2983,1,1,0,1
-1.224,2969,1,1,0,1
-1.222,2935,1,1,0,1
-1.22,2907,1,1,0,1
-1.218,2899,1,1,0,1
-1.216,2919,1,1,0,1
-1.214,2959,1,1,0,1
-1.212,2999,1,1,0,1
-1.21,3027,1,1,0,1
-1.208,3034,1,1,0,1
-1.206,3019,1,1,0,1
-1.204,2999,1,1,0,1
-1.202,3001,1,1,0,1
-1.2,3029,1,1,0,1
-1.198,3081,1,1,0,1
-1.196,3140,1,1,0,1
-1.194,3191,1,1,0,1
-1.192,3227,1,1,0,1
-1.19,3239,1,1,0,1
-1.188,3243,1,1,0,1
-1.186,3257,1,1,0,1
-1.184,3295,1,1,0,1
-1.182,3362,1,1,0,1
-1.18,3441,1,1,0,1
-1.178,3517,1,1,0,1
-1.176,3575,1,1,0,1
-1.174,3610,1,1,0,1
-1.172,3627,1,1,0,1
-1.17,3645,1,1,0,1
-1.168,3679,1,1,0,1
-1.166,3741,1,1,0,1
-1.164,3812,1,1,0,1
-1.162,3882,1,1,0,1
-1.16,3931,1,1,0,1
-1.158,3955,1,1,0,1
-1.156,3957,1,1,0,1
-1.154,3947,1,1,0,1
-1.152,3946,1,1,0,1
-1.15,3959,1,1,0,1
-1.148,3987,1,1,0,1
-1.146,4015,1,1,0,1
-1.144,4031,1,1,0,1
-1.142,4023,1,1,0,1
-1.14,3989,1,1,0,1
-1.138,3935,1,1,0,1
-1.136,3893,1,1,0,1
-1.134,3866,1,1,0,1
-1.132,3853,1,1,0,1
-1.13,3839,1,1,0,1
-1.128,3815,1,1,0,1
-1.126,3763,1,1,0,1
-1.124,3678,1,1,0,1
-1.122,3567,1,1,0,1
-1.12,3449,1,1,0,1
-1.118,3338,1,1,0,1
-1.116,3241,1,1,0,1
-1.114,3158,1,1,0,1
-1.112,3077,1,1,0,1
-1.11,2974,1,1,0,1
-1.108,2846,1,1,0,1
-1.106,2695,1,1,0,1
-1.104,2533,1,1,0,1
-1.102,2387,1,1,0,1
-1.1,2266,1,1,0,1
-1.098,2167,1,1,0,1
-1.096,2078,1,1,0,1
-1.094,1981,1,1,0,1
-1.092,1866,1,1,0,1
-1.09,1734,1,1,0,1
-1.088,1593,1,1,0,1
-1.086,1462,1,1,0,1
-1.084,1361,1,1,0,1
-1.082,1290,1,1,0,1
-1.08,1237,1,1,0,1
-1.078,1186,1,1,0,1
-1.076,1119,1,1,0,1
-1.074,1036,1,1,0,1
-1.072,938,1,1,0,1
-1.07,845,1,1,0,1
-1.068,775,1,1,0,1
-1.066,735,1,1,0,1
-1.064,719,1,1,0,1
-1.062,710,1,1,0,1
-1.06,691,1,1,0,1
-1.058,655,1,1,0,1
-1.056,601,1,1,0,1
-1.054,545,1,1,0,1
-1.052,507,1,1,0,1
-1.05,498,1,1,0,1
-1.048,511,1,1,0,1
-1.046,534,1,1,0,1
-1.044,551,1,1,0,1
-1.042,549,1,1,0,1
-1.04,529,1,1,0,1
-1.038,503,1,1,0,1
-1.036,490,1,1,0,1
-1.034,503,1,1,0,1
-1.032,542,1,1,0,1
-1.03,593,1,1,0,1
-1.028,641,1,1,0,1
-1.026,671,1,1,0,1
-1.024,679,1,1,0,1
-1.022,671,1,1,0,1
-1.02,664,1,1,0,1
-1.018,677,1,1,0,1
-1.016,714,1,1,0,1
-1.014,767,1,1,0,1
-1.012,828,1,1,0,1
-1.01,875,1,1,0,1
-1.008,900,1,1,0,1
-1.006,905,1,1,0,1
-1.004,901,1,1,0,1
-1.002,909,1,1,0,1
-1,939,1,1,0,1
-0.998,987,1,1,0,1
-0.996,1039,1,1,0,1
-0.994,1075,1,1,0,1
-0.992,1090,1,1,0,1
-0.99,1080,1,1,0,1
-0.988,1059,1,1,0,1
-0.986,1047,1,1,0,1
-0.984,1059,1,1,0,1
-0.982,1097,1,1,0,1
-0.98,1148,1,1,0,1
-0.978,1198,1,1,0,1
-0.976,1229,1,1,0,1
-0.974,1236,1,1,0,1
-0.972,1225,1,1,0,1
-0.97,1217,1,1,0,1
-0.968,1225,1,1,0,1
-0.966,1256,1,1,0,1
-0.964,1306,1,1,0,1
-0.962,1361,1,1,0,1
-0.96,1403,1,1,0,1
-0.958,1425,1,1,0,1
-0.956,1426,1,1,0,1
-0.954,1422,1,1,0,1
-0.952,1431,1,1,0,1
-0.95,1461,1,1,0,1
-0.948,1507,1,1,0,1
-0.946,1560,1,1,0,1
-0.944,1597,1,1,0,1
-0.9419999999999999,1613,1,1,0,1
-0.9399999999999999,1605,1,1,0,1
-0.9379999999999999,1580,1,1,0,1
-0.9360000000000001,1563,1,1,0,1
-0.9340000000000001,1570,1,1,0,1
-0.9320000000000001,1599,1,1,0,1
-0.93,1643,1,1,0,1
-0.928,1685,1,1,0,1
-0.926,1707,1,1,0,1
-0.924,1706,1,1,0,1
-0.922,1694,1,1,0,1
-0.92,1693,1,1,0,1
-0.918,1714,1,1,0,1
-0.916,1759,1,1,0,1
-0.914,1815,1,1,0,1
-0.912,1867,1,1,0,1
-0.91,1899,1,1,0,1
-0.908,1906,1,1,0,1
-0.906,1889,1,1,0,1
-0.904,1861,1,1,0,1
-0.902,1839,1,1,0,1
-0.9,1835,1,1,0,1
-0.898,1849,1,1,0,1
-0.896,1861,1,1,0,1
-0.894,1855,1,1,0,1
-0.892,1819,1,1,0,1
-0.89,1753,1,1,0,1
-0.888,1673,1,1,0,1
-0.886,1595,1,1,0,1
-0.884,1541,1,1,0,1
-0.882,1505,1,1,0,1
-0.88,1486,1,1,0,1
-0.878,1463,1,1,0,1
-0.876,1429,1,1,0,1
-0.874,1379,1,1,0,1
-0.872,1319,1,1,0,1
-0.87,1265,1,1,0,1
-0.868,1237,1,1,0,1
-0.866,1237,1,1,0,1
-0.864,1259,1,1,0,1
-0.862,1285,1,1,0,1
-0.86,1299,1,1,0,1
-0.858,1293,1,1,0,1
-0.856,1271,1,1,0,1
-0.854,1249,1,1,0,1
-0.852,1244,1,1,0,1
-0.85,1268,1,1,0,1
-0.848,1314,1,1,0,1
-0.846,1366,1,1,0,1
-0.844,1407,1,1,0,1
-0.842,1426,1,1,0,1
-0.84,1421,1,1,0,1
-0.838,1403,1,1,0,1
-0.836,1398,1,1,0,1
-0.834,1418,1,1,0,1
-0.832,1455,1,1,0,1
-0.83,1499,1,1,0,1
-0.828,1527,1,1,0,1
-0.826,1529,1,1,0,1
-0.824,1511,1,1,0,1
-0.822,1494,1,1,0,1
-0.82,1505,1,1,0,1
-0.8179999999999999,1573,1,1,0,1
-0.8159999999999999,1707,1,1,0,1
-0.8139999999999999,1906,1,1,0,1
-0.8120000000000001,2162,1,1,0,1
-0.8100000000000001,2459,1,1,0,1
-0.8080000000000001,2785,1,1,0,1
-0.806,3126,1,1,0,1
-0.804,3463,1,1,0,1
-0.802,3767,1,1,0,1
-0.8,3986,1,1,0,1
-0.798,4057,1,1,0,1
-0.796,4059,1,1,0,1
-0.794,3959,1,1,0,1
-0.792,3741,1,1,0,1
-0.79,3410,1,1,0,1
-0.788,2969,1,1,0,1
-0.786,2423,1,1,0,1
-0.784,1773,1,1,0,1
-0.782,1053,1,1,0,1
-0.78,308,1,1,0,1
-0.778,16,1,1,0,1
-0.776,0,1,1,0,1
-0.774,0,1,1,0,1
-0.772,0,1,1,0,1
-0.77,0,1,1,0,1
-0.768,0,1,1,0,1
-0.766,0,1,1,0,1
-0.764,0,1,1,0,1
-0.762,0,1,1,0,1
-0.76,0,1,1,0,1
-0.758,0,1,1,0,1
-0.756,0,1,1,0,1
-0.754,0,1,1,0,1
-0.752,0,1,1,0,1
-0.75,0,1,1,0,1
-0.748,0,1,1,0,1
-0.746,0,1,1,0,1
-0.744,0,1,1,0,1
-0.742,5,1,1,0,1
-0.74,94,1,1,0,1
-0.738,250,1,1,0,1
-0.736,456,1,1,0,1
-0.734,705,1,1,0,1
-0.732,986,1,1,0,1
-0.73,1279,1,1,0,1
-0.728,1559,1,1,0,1
-0.726,1804,1,1,0,1
-0.724,2007,1,1,0,1
-0.722,2173,1,1,0,1
-0.72,2317,1,1,0,1
-0.718,2457,1,1,0,1
-0.716,2597,1,1,0,1
-0.714,2730,1,1,0,1
-0.712,2846,1,1,0,1
-0.71,2929,1,1,0,1
-0.708,2974,1,1,0,1
-0.706,2986,1,1,0,1
-0.704,2983,1,1,0,1
-0.702,2987,1,1,0,1
-0.7,3005,1,1,0,1
-0.698,3037,1,1,0,1
-0.696,3067,1,1,0,1
-0.694,3083,1,1,0,1
-0.6919999999999999,3067,1,1,0,1
-0.6899999999999999,3029,1,1,0,1
-0.6879999999999999,2979,1,1,0,1
-0.6860000000000001,2939,1,1,0,1
-0.6840000000000001,2923,1,1,0,1
-0.6820000000000001,2927,1,1,0,1
-0.68,2939,1,1,0,1
-0.678,2947,1,1,0,1
-0.676,2931,1,1,0,1
-0.674,2893,1,1,0,1
-0.672,2841,1,1,0,1
-0.67,2793,1,1,0,1
-0.668,2765,1,1,0,1
-0.666,2765,1,1,0,1
-0.664,2786,1,1,0,1
-0.662,2805,1,1,0,1
-0.66,2809,1,1,0,1
-0.658,2794,1,1,0,1
-0.656,2762,1,1,0,1
-0.654,2731,1,1,0,1
-0.652,2718,1,1,0,1
-0.65,2731,1,1,0,1
-0.648,2765,1,1,0,1
-0.646,2807,1,1,0,1
-0.644,2839,1,1,0,1
-0.642,2847,1,1,0,1
-0.64,2835,1,1,0,1
-0.638,2813,1,1,0,1
-0.636,2804,1,1,0,1
-0.634,2823,1,1,0,1
-0.632,2869,1,1,0,1
-0.63,2930,1,1,0,1
-0.628,2987,1,1,0,1
-0.626,3026,1,1,0,1
-0.624,3045,1,1,0,1
-0.622,3053,1,1,0,1
-0.62,3070,1,1,0,1
-0.618,3113,1,1,0,1
-0.616,3174,1,1,0,1
-0.614,3249,1,1,0,1
-0.612,3322,1,1,0,1
-0.61,3381,1,1,0,1
-0.608,3415,1,1,0,1
-0.606,3427,1,1,0,1
-0.604,3430,1,1,0,1
-0.602,3445,1,1,0,1
-0.6,3482,1,1,0,1
-0.598,3539,1,1,0,1
-0.596,3602,1,1,0,1
-0.594,3653,1,1,0,1
-0.592,3675,1,1,0,1
-0.59,3676,1,1,0,1
-0.588,3667,1,1,0,1
-0.586,3666,1,1,0,1
-0.584,3687,1,1,0,1
-0.582,3731,1,1,0,1
-0.58,3781,1,1,0,1
-0.578,3815,1,1,0,1
-0.576,3829,1,1,0,1
-0.574,3811,1,1,0,1
-0.572,3771,1,1,0,1
-0.57,3726,1,1,0,1
-0.5679999999999999,3695,1,1,0,1
-0.5659999999999999,3683,1,1,0,1
-0.5639999999999999,3679,1,1,0,1
-0.5620000000000001,3669,1,1,0,1
-0.5600000000000001,3639,1,1,0,1
-0.5580000000000001,3575,1,1,0,1
-0.556,3483,1,1,0,1
-0.554,3381,1,1,0,1
-0.552,3285,1,1,0,1
-0.55,3209,1,1,0,1
-0.548,3146,1,1,0,1
-0.546,3081,1,1,0,1
-0.544,3002,1,1,0,1
-0.542,2901,1,1,0,1
-0.54,2773,1,1,0,1
-0.538,2633,1,1,0,1
-0.536,2500,1,1,0,1
-0.534,2390,1,1,0,1
-0.532,2307,1,1,0,1
-0.53,2233,1,1,0,1
-0.528,2154,1,1,0,1
-0.526,2054,1,1,0,1
-0.524,1929,1,1,0,1
-0.522,1796,1,1,0,1
-0.52,1671,1,1,0,1
-0.518,1571,1,1,0,1
-0.516,1493,1,1,0,1
-0.514,1430,1,1,0,1
-0.512,1373,1,1,0,1
-0.51,1305,1,1,0,1
-0.508,1217,1,1,0,1
-0.506,1114,1,1,0,1
-0.504,1009,1,1,0,1
-0.502,925,1,1,0,1
-0.5,869,1,1,0,1
-0.498,836,1,1,0,1
-0.496,810,1,1,0,1
-0.494,780,1,1,0,1
-0.492,735,1,1,0,1
-0.49,679,1,1,0,1
-0.488,619,1,1,0,1
-0.486,572,1,1,0,1
-0.484,552,1,1,0,1
-0.482,560,1,1,0,1
-0.48,583,1,1,0,1
-0.478,605,1,1,0,1
-0.476,615,1,1,0,1
-0.474,605,1,1,0,1
-0.472,584,1,1,0,1
-0.47,573,1,1,0,1
-0.468,583,1,1,0,1
-0.466,616,1,1,0,1
-0.464,665,1,1,0,1
-0.462,712,1,1,0,1
-0.46,743,1,1,0,1
-0.458,752,1,1,0,1
-0.456,742,1,1,0,1
-0.454,730,1,1,0,1
-0.452,734,1,1,0,1
-0.45,759,1,1,0,1
-0.448,805,1,1,0,1
-0.446,857,1,1,0,1
-0.444,901,1,1,0,1
-0.442,923,1,1,0,1
-0.44,924,1,1,0,1
-0.438,911,1,1,0,1
-0.436,909,1,1,0,1
-0.434,931,1,1,0,1
-0.432,973,1,1,0,1
-0.43,1027,1,1,0,1
-0.428,1072,1,1,0,1
-0.426,1099,1,1,0,1
-0.424,1102,1,1,0,1
-0.422,1091,1,1,0,1
-0.42,1084,1,1,0,1
-0.418,1101,1,1,0,1
-0.416,1140,1,1,0,1
-0.414,1195,1,1,0,1
-0.412,1249,1,1,0,1
-0.41,1286,1,1,0,1
-0.408,1295,1,1,0,1
-0.406,1282,1,1,0,1
-0.404,1262,1,1,0,1
-0.402,1261,1,1,0,1
-0.4,1284,1,1,0,1
-0.398,1329,1,1,0,1
-0.396,1383,1,1,0,1
-0.394,1428,1,1,0,1
-0.392,1452,1,1,0,1
-0.39,1457,1,1,0,1
-0.388,1451,1,1,0,1
-0.386,1454,1,1,0,1
-0.384,1478,1,1,0,1
-0.382,1522,1,1,0,1
-0.38,1575,1,1,0,1
-0.378,1621,1,1,0,1
-0.376,1646,1,1,0,1
-0.374,1650,1,1,0,1
-0.372,1636,1,1,0,1
-0.37,1623,1,1,0,1
-0.368,1629,1,1,0,1
-0.366,1657,1,1,0,1
-0.364,1699,1,1,0,1
-0.362,1734,1,1,0,1
-0.36,1750,1,1,0,1
-0.358,1745,1,1,0,1
-0.356,1723,1,1,0,1
-0.354,1702,1,1,0,1
-0.352,1699,1,1,0,1
-0.35,1723,1,1,0,1
-0.348,1773,1,1,0,1
-0.346,1834,1,1,0,1
-0.344,1885,1,1,0,1
-0.342,1917,1,1,0,1
-0.34,1927,1,1,0,1
-0.338,1918,1,1,0,1
-0.336,1915,1,1,0,1
-0.334,1931,1,1,0,1
-0.332,1961,1,1,0,1
-0.33,1994,1,1,0,1
-0.328,2013,1,1,0,1
-0.326,2009,1,1,0,1
-0.324,1977,1,1,0,1
-0.322,1925,1,1,0,1
-0.32,1869,1,1,0,1
-0.318,1829,1,1,0,1
-0.316,1811,1,1,0,1
-0.314,1805,1,1,0,1
-0.312,1795,1,1,0,1
-0.31,1765,1,1,0,1
-0.308,1714,1,1,0,1
-0.306,1646,1,1,0,1
-0.304,1580,1,1,0,1
-0.302,1534,1,1,0,1
-0.3,1519,1,1,0,1
-0.298,1531,1,1,0,1
-0.296,1553,1,1,0,1
-0.294,1566,1,1,0,1
-0.292,1561,1,1,0,1
-0.29,1535,1,1,0,1
-0.288,1507,1,1,0,1
-0.286,1491,1,1,0,1
-0.284,1499,1,1,0,1
-0.282,1532,1,1,0,1
-0.28,1577,1,1,0,1
-0.278,1618,1,1,0,1
-0.276,1642,1,1,0,1
-0.274,1644,1,1,0,1
-0.272,1629,1,1,0,1
-0.27,1618,1,1,0,1
-0.268,1629,1,1,0,1
-0.266,1669,1,1,0,1
-0.264,1726,1,1,0,1
-0.262,1783,1,1,0,1
-0.26,1819,1,1,0,1
-0.258,1826,1,1,0,1
-0.256,1806,1,1,0,1
-0.254,1783,1,1,0,1
-0.252,1783,1,1,0,1
-0.25,1826,1,1,0,1
-0.248,1910,1,1,0,1
-0.246,2030,1,1,0,1
-0.244,2171,1,1,0,1
-0.242,2324,1,1,0,1
-0.24,2501,1,1,0,1
-0.238,2717,1,1,0,1
-0.236,2983,1,1,0,1
-0.234,3293,1,1,0,1
-0.232,3607,1,1,0,1
-0.23,3855,1,1,0,1
-0.228,3981,1,1,0,1
-0.226,3975,1,1,0,1
-0.224,3861,1,1,0,1
-0.222,3651,1,1,0,1
-0.22,3365,1,1,0,1
-0.218,3026,1,1,0,1
-0.216,2627,1,1,0,1
-0.214,2141,1,1,0,1
-0.212,1555,1,1,0,1
-0.21,895,1,1,0,1
-0.208,207,1,1,0,1
-0.206,11,1,1,0,1
-0.204,0,1,1,0,1
-0.202,0,1,1,0,1
-0.2,0,1,1,0,1
-0.198,0,1,1,0,1
-0.196,0,1,1,0,1
-0.194,0,1,1,0,1
-0.192,0,1,1,0,1
-0.19,0,1,1,0,1
-0.188,0,1,1,0,1
-0.186,0,1,1,0,1
-0.184,0,1,1,0,1
-0.182,0,1,1,0,1
-0.18,0,1,1,0,1
-0.178,0,1,1,0,1
-0.176,0,1,1,0,1
-0.174,6,1,1,0,1
-0.172,85,1,1,0,1
-0.17,243,1,1,0,1
-0.168,475,1,1,0,1
-0.166,763,1,1,0,1
-0.164,1081,1,1,0,1
-0.162,1395,1,1,0,1
-0.16,1686,1,1,0,1
-0.158,1935,1,1,0,1
-0.156,2142,1,1,0,1
-0.154,2321,1,1,0,1
-0.152,2490,1,1,0,1
-0.15,2661,1,1,0,1
-0.148,2828,1,1,0,1
-0.146,2978,1,1,0,1
-0.144,3095,1,1,0,1
-0.142,3173,1,1,0,1
-0.14,3211,1,1,0,1
-0.138,3221,1,1,0,1
-0.136,3223,1,1,0,1
-0.134,3239,1,1,0,1
-0.132,3267,1,1,0,1
-0.13,3295,1,1,0,1
-0.128,3315,1,1,0,1
-0.126,3310,1,1,0,1
-0.124,3283,1,1,0,1
-0.122,3235,1,1,0,1
-0.12,3183,1,1,0,1
-0.118,3156,1,1,0,1
-0.116,3151,1,1,0,1
-0.114,3161,1,1,0,1
-0.112,3172,1,1,0,1
-0.11,3167,1,1,0,1
-0.108,3143,1,1,0,1
-0.106,3098,1,1,0,1
-0.104,3051,1,1,0,1
-0.102,3028,1,1,0,1
-0.1,3028,1,1,0,1
-0.098,3047,1,1,0,1
-0.096,3071,1,1,0,1
-0.094,3089,1,1,0,1
-0.092,3082,1,1,0,1
-0.09,3051,1,1,0,1
-0.08799999999999999,3018,1,1,0,1
-0.08599999999999999,2997,1,1,0,1
-0.08400000000000001,2995,1,1,0,1
-0.082,3019,1,1,0,1
-0.08,3054,1,1,0,1
-0.078,3086,1,1,0,1
-0.076,3095,1,1,0,1
-0.074,3079,1,1,0,1
-0.07199999999999999,3046,1,1,0,1
-0.07000000000000001,3026,1,1,0,1
-0.068,3030,1,1,0,1
-0.066,3063,1,1,0,1
-0.064,3118,1,1,0,1
-0.062,3173,1,1,0,1
-0.06,3215,1,1,0,1
-0.058,3238,1,1,0,1
-0.056,3243,1,1,0,1
-0.054,3247,1,1,0,1
-0.052,3269,1,1,0,1
-0.05,3315,1,1,0,1
-0.048,3382,1,1,0,1
-0.046,3451,1,1,0,1
-0.044,3510,1,1,0,1
-0.042,3549,1,1,0,1
-0.04,3566,1,1,0,1
-0.038,3573,1,1,0,1
-0.036,3591,1,1,0,1
-0.034,3629,1,1,0,1
-0.032,3686,1,1,0,1
-0.03,3757,1,1,0,1
-0.028,3818,1,1,0,1
-0.026,3861,1,1,0,1
-0.024,3877,1,1,0,1
-0.022,3875,1,1,0,1
-0.02,3875,1,1,0,1
-0.018,3890,1,1,0,1
-0.016,3923,1,1,0,1
-0.014,3963,1,1,0,1
-0.012,4005,1,1,0,1
-0.01,4023,1,1,0,1
-0.008,4018,1,1,0,1
-0.006,3989,1,1,0,1
-0.004,3951,1,1,0,1
-0.002,3925,1,1,0,1
0,3917,1,1,0,1
0.002,3922,1,1,0,1
0.004,3922,1,1,0,1
0.006,3902,1,1,0,1
0.008,3854,1,1,0,1
0.01,3774,1,1,0,1
0.012,3678,1,1,0,1
0.014,3582,1,1,0,1
0.016,3507,1,1,0,1
0.018,3445,1,1,0,1
0.02,3388,1,1,0,1
0.022,3319,1,1,0,1
0.024,3229,1,1,0,1
0.026,3111,1,1,0,1
0.028,2974,1,1,0,1
0.03,2842,1,1,0,1
0.032,2725,1,1,0,1
0.034,2629,1,1,0,1
0.036,2546,1,1,0,1
0.038,2468,1,1,0,1
0.04,2377,1,1,0,1
0.042,2261,1,1,0,1
0.044,2129,1,1,0,1
0.046,1998,1,1,0,1
0.048,1887,1,1,0,1
0.05,1806,1,1,0,1
0.052,1747,1,1,0,1
0.054,1694,1,1,0,1
0.056,1631,1,1,0,1
0.058,1549,1,1,0,1
0.06,1446,1,1,0,1
0.062,1336,1,1,0,1
0.064,1239,1,1,0,1
0.066,1170,1,1,0,1
0.068,1127,1,1,0,1
0.07000000000000001,1103,1,1,0,1
0.07199999999999999,1079,1,1,0,1
0.074,1040,1,1,0,1
0.076,980,1,1,0,1
0.078,911,1,1,0,1
0.08,852,1,1,0,1
0.082,817,1,1,0,1
0.08400000000000001,809,1,1,0,1
0.08599999999999999,820,1,1,0,1
0.08799999999999999,835,1,1,0,1
0.09,837,1,1,0,1
0.092,819,1,1,0,1
0.094,781,1,1,0,1
0.096,745,1,1,0,1
0.098,732,1,1,0,1
0.1,749,1,1,0,1
0.102,790,1,1,0,1
0.104,836,1,1,0,1
0.106,871,1,1,0,1
0.108,885,1,1,0,1
0.11,879,1,1,0,1
0.112,868,1,1,0,1
0.114,870,1,1,0,1
0.116,898,1,1,0,1
0.118,947,1,1,0,1
0.12,1006,1,1,0,1
0.122,1057,1,1,0,1
0.124,1085,1,1,0,1
0.126,1090,1,1,0,1
0.128,1082,1,1,0,1
0.13,1079,1,1,0,1
0.132,1097,1,1,0,1
0.134,1138,1,1,0,1
0.136,1192,1,1,0,1
0.138,1244,1,1,0,1
0.14,1279,1,1,0,1
0.142,1291,1,1,0,1
0.144,1283,1,1,0,1
0.146,1270,1,1,0,1
0.148,1274,1,1,0,1
0.15,1302,1,1,0,1
0.152,1349,1,1,0,1
0.154,1397,1,1,0,1
0.156,1433,1,1,0,1
0.158,1449,1,1,0,1
0.16,1443,1,1,0,1
0.162,1427,1,1,0,1
0.164,1420,1,1,0,1
0.166,1437,1,1,0,1
0.168,1476,1,1,0,1
0.17,1522,1,1,0,1
0.172,1562,1,1,0,1
0.174,1582,1,1,0,1
0.176,1580,1,1,0,1
0.178,1567,1,1,0,1
0.18,1565,1,1,0,1
0.182,1585,1,1,0,1
0.184,1628,1,1,0,1
0.186,1684,1,1,0,1
0.188,1735,1,1,0,1
0.19,1770,1,1,0,1
0.192,1781,1,1,0,1
0.194,1773,1,1,0,1
0.196,1764,1,1,0,1
0.198,1770,1,1,0,1
0.2,1795,1,1,0,1
0.202,1835,1,1,0,1
0.204,1875,1,1,0,1
0.206,1897,1,1,0,1
0.208,1893,1,1,0,1
0.21,1866,1,1,0,1
0.212,1831,1,1,0,1
0.214,1811,1,1,0,1
0.216,1817,1,1,0,1
0.218,1847,1,1,0,1
0.22,1890,1,1,0,1
0.222,1929,1,1,0,1
0.224,1954,1,1,0,1
0.226,1959,1,1,0,1
0.228,1956,1,1,0,1
0.23,1956,1,1,0,1
0.232,1970,1,1,0,1
0.234,2003,1,1,0,1
0.236,2042,1,1,0,1
0.238,2073,1,1,0,1
0.24,2075,1,1,0,1
0.242,2054,1,1,0,1
0.244,2011,1,1,0,1
0.246,1967,1,1,0,1
0.248,1934,1,1,0,1
0.25,1922,1,1,0,1
0.252,1923,1,1,0,1
0.254,1922,1,1,0,1
0.256,1901,1,1,0,1
0.258,1858,1,1,0,1
0.26,1790,1,1,0,1
0.262,1718,1,1,0,1
0.264,1657,1,1,0,1
0.266,1621,1,1,0,1
0.268,1613,1,1,0,1
0.27,1622,1,1,0,1
0.272,1627,1,1,0,1
0.274,1617,1,1,0,1
0.276,1588,1,1,0,1
0.278,1549,1,1,0,1
0.28,1522,1,1,0,1
0.282,1522,1,1,0,1
0.284,1549,1,1,0,1
0.286,1594,1,1,0,1
0.288,1638,1,1,0,1
0.29,1667,1,1,0,1
0.292,1670,1,1,0,1
0.294,1654,1,1,0,1
0.296,1638,1,1,0,1
0.298,1639,1,1,0,1
0.3,1666,1,1,0,1
0.302,1709,1,1,0,1
0.304,1759,1,1,0,1
0.306,1801,1,1,0,1
0.308,1817,1,1,0,1
0.31,1814,1,1,0,1
0.312,1803,1,1,0,1
0.314,1798,1,1,0,1
0.316,1809,1,1,0,1
0.318,1843,1,1,0,1
0.32,1899,1,1,0,1
0.322,1967,1,1,0,1
0.324,2041,1,1,0,1
0.326,2126,1,1,0,1
0.328,2234,1,1,0,1
0.33,2391,1,1,0,1
0.332,2619,1,1,0,1
0.334,2914,1,1,0,1
0.336,3251,1,1,0,1
0.338,3581,1,1,0,1
0.34,3839,1,1,0,1
0.342,3959,1,1,0,1
0.344,3927,1,1,0,1
0.346,3789,1,1,0,1
0.348,3578,1,1,0,1
0.35,3307,1,1,0,1
0.352,2975,1,1,0,1
0.354,2577,1,1,0,1
0.356,2075,1,1,0,1
0.358,1456,1,1,0,1
0.36,750,1,1,0,1
0.362,99,1,1,0,1
0.364,5,1,1,0,1
0.366,0,1,1,0,1
0.368,0,1,1,0,1
0.37,0,1,1,0,1
0.372,0,1,1,0,1
0.374,0,1,1,0,1
0.376,0,1,1,0,1
0.378,0,1,1,0,1
0.38,0,1,1,0,1
0.382,0,1,1,0,1
0.384,0,1,1,0,1
0.386,0,1,1,0,1
0.388,0,1,1,0,1
0.39,0,1,1,0,1
0.392,0,1,1,0,1
0.394,0,1,1,0,1
0.396,0,1,1,0,1
0.398,61,1,1,0,1
0.4,238,1,1,0,1
0.402,498,1,1,0,1
0.404,801,1,1,0,1
0.406,1107,1,1,0,1
0.408,1390,1,1,0,1
0.41,1643,1,1,0,1
0.412,1873,1,1,0,1
0.414,2095,1,1,0,1
0.416,2317,1,1,0,1
0.418,2537,1,1,0,1
0.42,2743,1,1,0,1
0.422,2915,1,1,0,1
0.424,3039,1,1,0,1
0.426,3121,1,1,0,1
0.428,3166,1,1,0,1
0.43,3198,1,1,0,1
0.432,3238,1,1,0,1
0.434,3285,1,1,0,1
0.436,3335,1,1,0,1
0.438,3370,1,1,0,1
0.44,3381,1,1,0,1
0.442,3363,1,1,0,1
0.444,3322,1,1,0,1
0.446,3279,1,1,0,1
0.448,3253,1,1,0,1
0.45,3247,1,1,0,1
0.452,3254,1,1,0,1
0.454,3263,1,1,0,1
0.456,3261,1,1,0,1
0.458,3239,1,1,0,1
0.46,3195,1,1,0,1
0.462,3146,1,1,0,1
0.464,3108,1,1,0,1
0.466,3093,1,1,0,1
0.468,3101,1,1,0,1
0.47,3119,1,1,0,1
0.472,3131,1,1,0,1
0.474,3119,1,1,0,1
0.476,3083,1,1,0,1
0.478,3031,1,1,0,1
0.48,2991,1,1,0,1
0.482,2978,1,1,0,1
0.484,2989,1,1,0,1
0.486,3018,1,1,0,1
0.488,3043,1,1,0,1
0.49,3055,1,1,0,1
0.492,3047,1,1,0,1
0.494,3023,1,1,0,1
0.496,3001,1,1,0,1
0.498,2997,1,1,0,1
0.5,3019,1,1,0,1
0.502,3059,1,1,0,1
0.504,3109,1,1,0,1
0.506,3147,1,1,0,1
0.508,3163,1,1,0,1
0.51,3163,1,1,0,1
0.512,3159,1,1,0,1
0.514,3170,1,1,0,1
0.516,3207,1,1,0,1
0.518,3263,1,1,0,1
0.52,3337,1,1,0,1
0.522,3401,1,1,0,1
0.524,3445,1,1,0,1
0.526,3467,1,1,0,1
0.528,3474,1,1,0,1
0.53,3487,1,1,0,1
0.532,3523,1,1,0,1
0.534,3578,1,1,0,1
0.536,3653,1,1,0,1
0.538,3724,1,1,0,1
0.54,3779,1,1,0,1
0.542,3807,1,1,0,1
0.544,3819,1,1,0,1
0.546,3826,1,1,0,1
0.548,3849,1,1,0,1
0.55,3891,1,1,0,1
0.552,3949,1,1,0,1
0.554,4003,1,1,0,1
0.556,4039,1,1,0,1
0.5580000000000001,4047,1,1,0,1
0.5600000000000001,4031,1,1,0,1
0.5620000000000001,4006,1,1,0,1
0.5639999999999999,3983,1,1,0,1
0.5659999999999999,3979,1,1,0,1
0.5679999999999999,3990,1,1,0,1
0.57,4005,1,1,0,1
0.572,4004,1,1,0,1
0.574,3978,1,1,0,1
0.576,3919,1,1,0,1
0.578,3838,1,1,0,1
0.58,3755,1,1,0,1
0.582,3685,1,1,0,1
0.584,3629,1,1,0,1
0.586,3579,1,1,0,1
0.588,3525,1,1,0,1
0.59,3445,1,1,0,1
0.592,3341,1,1,0,1
0.594,3213,1,1,0,1
0.596,3083,1,1,0,1
0.598,2965,1,1,0,1
0.6,2870,1,1,0,1
0.602,2795,1,1,0,1
0.604,2723,1,1,0,1
0.606,2638,1,1,0,1
0.608,2532,1,1,0,1
0.61,2409,1,1,0,1
0.612,2277,1,1,0,1
0.614,2156,1,1,0,1
0.616,2054,1,1,0,1
0.618,1974,1,1,0,1
0.62,1907,1,1,0,1
0.622,1838,1,1,0,1
0.624,1754,1,1,0,1
0.626,1649,1,1,0,1
0.628,1532,1,1,0,1
0.63,1427,1,1,0,1
0.632,1348,1,1,0,1
0.634,1294,1,1,0,1
0.636,1258,1,1,0,1
0.638,1225,1,1,0,1
0.64,1178,1,1,0,1
0.642,1111,1,1,0,1
0.644,1031,1,1,0,1
0.646,953,1,1,0,1
0.648,899,1,1,0,1
0.65,873,1,1,0,1
0.652,871,1,1,0,1
0.654,877,1,1,0,1
0.656,874,1,1,0,1
0.658,853,1,1,0,1
0.66,815,1,1,0,1
0.662,771,1,1,0,1
0.664,741,1,1,0,1
0.666,738,1,1,0,1
0.668,759,1,1,0,1
0.67,794,1,1,0,1
0.672,822,1,1,0,1
0.674,831,1,1,0,1
0.676,822,1,1,0,1
0.678,803,1,1,0,1
0.68,791,1,1,0,1
0.6820000000000001,804,1,1,0,1
0.6840000000000001,841,1,1,0,1
0.6860000000000001,892,1,1,0,1
0.6879999999999999,942,1,1,0,1
0.6899999999999999,974,1,1,0,1
0.6919999999999999,983,1,1,0,1
0.694,976,1,1,0,1
0.696,969,1,1,0,1
0.698,980,1,1,0,1
0.7,1015,1,1,0,1
0.702,1070,1,1,0,1
0.704,1127,1,1,0,1
0.706,1170,1,1,0,1
0.708,1189,1,1,0,1
0.71,1187,1,1,0,1
0.712,1174,1,1,0,1
0.714,1174,1,1,0,1
0.716,1197,1,1,0,1
0.718,1238,1,1,0,1
0.72,1287,1,1,0,1
0.722,1326,1,1,0,1
0.724,1343,1,1,0,1
0.726,1340,1,1,0,1
0.728,1325,1,1,0,1
0.73,1317,1,1,0,1
0.732,1333,1,1,0,1
0.734,1371,1,1,0,1
0.736,1426,1,1,0,1
0.738,1475,1,1,0,1
0.74,1506,1,1,0,1
0.742,1514,1,1,0,1
0.744,1502,1,1,0,1
0.746,1494,1,1,0,1
0.748,1508,1,1,0,1
0.75,1547,1,1,0,1
0.752,1603,1,1,0,1
0.754,1661,1,1,0,1
0.756,1703,1,1,0,1
0.758,1719,1,1,0,1
0.76,1713,1,1,0,1
0.762,1698,1,1,0,1
0.764,1695,1,1,0,1
0.766,1717,1,1,0,1
0.768,1757,1,1,0,1
0.77,1805,1,1,0,1
0.772,1835,1,1,0,1
0.774,1838,1,1,0,1
0.776,1815,1,1,0,1
0.778,1779,1,1,0,1
0.78,1754,1,1,0,1
0.782,1759,1,1,0,1
0.784,1796,1,1,0,1
0.786,1846,1,1,0,1
0.788,1896,1,1,0,1
0.79,1930,1,1,0,1
0.792,1944,1,1,0,1
0.794,1940,1,1,0,1
0.796,1940,1,1,0,1
0.798,1957,1,1,0,1
0.8,1997,1,1,0,1
0.802,2051,1,1,0,1
0.804,2099,1,1,0,1
0.806,2129,1,1,0,1
0.8080000000000001,2125,1,1,0,1
0.8100000000000001,2090,1,1,0,1
0.8120000000000001,2039,1,1,0,1
0.8139999999999999,2002,1,1,0,1
0.8159999999999999,1981,1,1,0,1
0.8179999999999999,1973,1,1,0,1
0.82,1965,1,1,0,1
0.822,1940,1,1,0,1
0.824,1890,1,1,0,1
0.826,1813,1,1,0,1
0.828,1724,1,1,0,1
0.83,1646,1,1,0,1
0.832,1594,1,1,0,1
0.834,1571,1,1,0,1
0.836,1567,1,1,0,1
0.838,1569,1,1,0,1
0.84,1557,1,1,0,1
0.842,1525,1,1,0,1
0.844,1482,1,1,0,1
0.846,1446,1,1,0,1
0.848,1431,1,1,0,1
0.85,1444,1,1,0,1
0.852,1474,1,1,0,1
0.854,1510,1,1,0,1
0.856,1535,1,1,0,1
0.858,1543,1,1,0,1
0.86,1527,1,1,0,1
0.862,1508,1,1,0,1
0.864,1502,1,1,0,1
0.866,1522,1,1,0,1
0.868,1563,1,1,0,1
0.87,1615,1,1,0,1
0.872,1658,1,1,0,1
0.874,1685,1,1,0,1
0.876,1685,1,1,0,1
0.878,1672,1,1,0,1
0.88,1659,1,1,0,1
0.882,1666,1,1,0,1
0.884,1687,1,1,0,1
0.886,1716,1,1,0,1
0.888,1746,1,1,0,1
0.89,1771,1,1,0,1
0.892,1798,1,1,0,1
0.894,1842,1,1,0,1
0.896,1929,1,1,0,1
0.898,2083,1,1,0,1
0.9,2314,1,1,0,1
0.902,2621,1,1,0,1
0.904,2986,1,1,0,1
0.906,3374,1,1,0,1
0.908,3738,1,1,0,1
0.91,4011,1,1,0,1
0.912,4059,1,1,0,1
0.914,4061,1,1,0,1
0.916,4046,1,1,0,1
0.918,3942,1,1,0,1
0.92,3739,1,1,0,1
0.922,3434,1,1,0,1
0.924,3007,1,1,0,1
0.926,2446,1,1,0,1
0.928,1751,1,1,0,1
0.93,986,1,1,0,1
0.9320000000000001,227,1,1,0,1
0.9340000000000001,12,1,1,0,1
0.9360000000000001,0,1,1,0,1
0.9379999999999999,0,1,1,0,1
0.9399999999999999,0,1,1,0,1
0.9419999999999999,0,1,1,0,1
0.944,0,1,1,0,1
0.946,0,1,1,0,1
0.948,0,1,1,0,1
0.95,0,1,1,0,1
0.952,0,1,1,0,1
0.954,0,1,1,0,1
0.956,0,1,1,0,1
0.958,0,1,1,0,1
0.96,0,1,1,0,1
0.962,0,1,1,0,1
0.964,0,1,1,0,1
0.966,0,1,1,0,1
0.968,0,1,1,0,1
0.97,81,1,1,0,1
0.972,263,1,1,0,1
0.974,492,1,1,0,1
0.976,735,1,1,0,1
0.978,985,1,1,0,1
0.98,1245,1,1,0,1
0.982,1519,1,1,0,1
0.984,1803,1,1,0,1
0.986,2078,1,1,0,1
0.988,2325,1,1,0,1
0.99,2529,1,1,0,1
0.992,2681,1,1,0,1
0.994,2789,1,1,0,1
0.996,2871,1,1,0,1
0.998,2951,1,1,0,1
1,3034,1,1,0,1
1.002,3123,1,1,0,1
1.004,3198,1,1,0,1
1.006,3245,1,1,0,1
1.008,3254,1,1,0,1
1.01,3234,1,1,0,1
1.012,3195,1,1,0,1
1.014,3165,1,1,0,1
1.016,3153,1,1,0,1
1.018,3161,1,1,0,1
1.02,3179,1,1,0,1
1.022,3189,1,1,0,1
1.024,3174,1,1,0,1
1.026,3131,1,1,0,1
1.028,3078,1,1,0,1
1.03,3031,1,1,0,1
1.032,3007,1,1,0,1
1.034,3015,1,1,0,1
1.036,3033,1,1,0,1
1.038,3047,1,1,0,1
1.04,3045,1,1,0,1
1.042,3018,1,1,0,1
1.044,2974,1,1,0,1
1.046,2934,1,1,0,1
1.048,2915,1,1,0,1
1.05,2919,1,1,0,1
1.052,2943,1,1,0,1
1.054,2973,1,1,0,1
1.056,2989,1,1,0,1
1.058,2985,1,1,0,1
1.06,2959,1,1,0,1
1.062,2933,1,1,0,1
1.064,2922,1,1,0,1
1.066,2937,1,1,0,1
1.068,2974,1,1,0,1
1.07,3019,1,1,0,1
1.072,3055,1,1,0,1
1.074,3079,1,1,0,1
1.076,3081,1,1,0,1
1.078,3069,1,1,0,1
1.08,3069,1,1,0,1
1.082,3097,1,1,0,1
1.084,3143,1,1,0,1
1.086,3205,1,1,0,1
1.088,3262,1,1,0,1
1.09,3307,1,1,0,1
1.092,3331,1,1,0,1
1.094,3339,1,1,0,1
1.096,3350,1,1,0,1
1.098,3383,1,1,0,1
1.1,3445,1,1,0,1
1.102,3527,1,1,0,1
1.104,3613,1,1,0,1
1.106,3685,1,1,0,1
1.108,3732,1,1,0,1
1.11,3757,1,1,0,1
1.112,3772,1,1,0,1
1.114,3801,1,1,0,1
1.116,3851,1,1,0,1
1.118,3917,1,1,0,1
1.12,3987,1,1,0,1
1.122,4039,1,1,0,1
1.124,4059,1,1,0,1
1.126,4061,1,1,0,1
1.128,4055,1,1,0,1
1.13,4047,1,1,0,1
1.132,4053,1,1,0,1
1.134,4061,1,1,0,1
1.136,4061,1,1,0,1
1.138,4061,1,1,0,1
1.14,4061,1,1,0,1
1.142,4041,1,1,0,1
1.144,3986,1,1,0,1
1.146,3919,1,1,0,1
1.148,3865,1,1,0,1
1.15,3827,1,1,0,1
1.152,3799,1,1,0,1
1.154,3766,1,1,0,1
1.156,3708,1,1,0,1
1.158,3615,1,1,0,1
1.16,3492,1,1,0,1
1.162,3355,1,1,0,1
1.164,3229,1,1,0,1
1.166,3123,1,1,0,1
1.168,3034,1,1,0,1
1.17,2956,1,1,0,1
1.172,2867,1,1,0,1
1.174,2757,1,1,0,1
1.176,2621,1,1,0,1
1.178,2475,1,1,0,1
1.18,2338,1,1,0,1
1.182,2223,1,1,0,1
1.184,2137,1,1,0,1
1.186,2067,1,1,0,1
1.188,1991,1,1,0,1
1.19,1899,1,1,0,1
1.192,1785,1,1,0,1
1.194,1658,1,1,0,1
1.196,1539,1,1,0,1
1.198,1442,1,1,0,1
1.2,1369,1,1,0,1
1.202,1319,1,1,0,1
1.204,1274,1,1,0,1
1.206,1218,1,1,0,1
1.208,1145,1,1,0,1
1.21,1054,1,1,0,1
1.212,958,1,1,0,1
1.214,881,1,1,0,1
1.216,833,1,1,0,1
1.218,810,1,1,0,1
1.22,801,1,1,0,1
1.222,789,1,1,0,1
1.224,764,1,1,0,1
1.226,723,1,1,0,1
1.228,676,1,1,0,1
1.23,642,1,1,0,1
1.232,632,1,1,0,1
1.234,645,1,1,0,1
1.236,671,1,1,0,1
1.238,699,1,1,0,1
1.24,711,1,1,0,1
1.242,704,1,1,0,1
1.244,683,1,1,0,1
1.246,669,1,1,0,1
1.248,675,1,1,0,1
1.25,703,1,1,0,1
1.252,750,1,1,0,1
1.254,797,1,1,0,1
1.256,833,1,1,0,1
1.258,849,1,1,0,1
1.26,846,1,1,0,1
1.262,840,1,1,0,1
1.264,848,1,1,0,1
1.266,881,1,1,0,1
1.268,937,1,1,0,1
1.27,999,1,1,0,1
1.272,1052,1,1,0,1
1.274,1080,1,1,0,1
1.276,1083,1,1,0,1
1.278,1073,1,1,0,1
1.28,1070,1,1,0,1
1.282,1090,1,1,0,1
1.284,1129,1,1,0,1
1.286,1180,1,1,0,1
1.288,1225,1,1,0,1
1.29,1250,1,1,0,1
1.292,1249,1,1,0,1
1.294,1230,1,1,0,1
1.296,1213,1,1,0,1
1.298,1217,1,1,0,1
1.3,1243,1,1,0,1
1.302,1289,1,1,0,1
1.304,1340,1,1,0,1
1.306,1379,1,1,0,1
1.308,1392,1,1,0,1
1.31,1385,1,1,0,1
1.312,1373,1,1,0,1
1.314,1378,1,1,0,1
1.316,1407,1,1,0,1
1.318,1457,1,1,0,1
1.32,1515,1,1,0,1
1.322,1565,1,1,0,1
1.324,1590,1,1,0,1
1.326,1591,1,1,0,1
1.328,1579,1,1,0,1
1.33,1575,1,1,0,1
1.332,1596,1,1,0,1
1.334,1639,1,1,0,1
1.336,1691,1,1,0,1
1.338,1735,1,1,0,1
1.34,1758,1,1,0,1
1.342,1755,1,1,0,1
1.344,1735,1,1,0,1
1.346,1717,1,1,0,1
1.348,1713,1,1,0,1
1.35,1733,1,1,0,1
1.352,1770,1,1,0,1
1.354,1811,1,1,0,1
1.356,1837,1,1,0,1
1.358,1845,1,1,0,1
1.36,1838,1,1,0,1
1.362,1833,1,1,0,1
1.364,1844,1,1,0,1
1.366,1883,1,1,0,1
1.368,1939,1,1,0,1
1.37,1997,1,1,0,1
1.372,2037,1,1,0,1
1.374,2053,1,1,0,1
1.376,2035,1,1,0,1
1.378,1997,1,1,0,1
1.38,1963,1,1,0,1
1.382,1947,1,1,0,1
1.384,1950,1,1,0,1
1.386,1961,1,1,0,1
1.388,1959,1,1,0,1
1.39,1931,1,1,0,1
1.392,1874,1,1,0,1
1.394,1794,1,1,0,1
1.396,1710,1,1,0,1
1.398,1645,1,1,0,1
1.4,1605,1,1,0,1
1.402,1583,1,1,0,1
1.404,1569,1,1,0,1
1.406,1545,1,1,0,1
1.408,1503,1,1,0,1
1.41,1447,1,1,0,1
1.412,1395,1,1,0,1
1.414,1366,1,1,0,1
1.416,1369,1,1,0,1
1.418,1395,1,1,0,1
1.42,1430,1,1,0,1
1.422,1455,1,1,0,1
1.424,1463,1,1,0,1
1.426,1451,1,1,0,1
1.428,1430,1,1,0,1
1.43,1419,1,1,0,1
1.432,1434,1,1,0,1
1.434,1471,1,1,0,1
1.436,1521,1,1,0,1
1.438,1565,1,1,0,1
1.44,1589,1,1,0,1
1.442,1589,1,1,0,1
1.444,1573,1,1,0,1
1.446,1563,1,1,0,1
1.448,1577,1,1,0,1
1.45,1611,1,1,0,1
1.452,1659,1,1,0,1
1.454,1699,1,1,0,1
1.456,1713,1,1,0,1
1.458,1705,1,1,0,1
1.46,1694,1,1,0,1
1.462,1707,1,1,0,1
1.464,1772,1,1,0,1
1.466,1905,1,1,0,1
1.468,2100,1,1,0,1
1.47,2350,1,1,0,1
1.472,2646,1,1,0,1
1.474,2970,1,1,0,1
1.476,3310,1,1,0,1
1.478,3647,1,1,0,1
1.48,3951,1,1,0,1
1.482,4055,1,1,0,1
1.484,4061,1,1,0,1
1.486,4061,1,1,0,1
1.488,4038,1,1,0,1
1.49,3882,1,1,0,1
1.492,3601,1,1,0,1
1.494,3205,1,1,0,1
1.496,2693,1,1,0,1
1.498,2073,1,1,0,1
1.5,1372,1,1,0,1
1.502,646,1,1,0,1
1.504,67,1,1,0,1
1.506,2,1,1,0,1
1.508,0,1,1,0,1
1.51,0,1,1,0,1
1.512,0,1,1,0,1
1.514,0,1,1,0,1
1.516,0,1,1,0,1
1.518,0,1,1,0,1
1.52,0,1,1,0,1
1.522,0,1,1,0,1
1.524,0,1,1,0,1
1.526,0,1,1,0,1
1.528,0,1,1,0,1
1.53,0,1,1,0,1
1.532,0,1,1,0,1
1.534,0,1,1,0,1
1.536,0,1,1,0,1
1.538,0,1,1,0,1
1.54,39,1,1,0,1
1.542,165,1,1,0,1
1.544,342,1,1,0,1
1.546,559,1,1,0,1
1.548,814,1,1,0,1
1.55,1101,1,1,0,1
1.552,1401,1,1,0,1
1.554,1691,1,1,0,1
1.556,1946,1,1,0,1
1.558,2155,1,1,0,1
1.56,2316,1,1,0,1
1.562,2446,1,1,0,1
1.564,2571,1,1,0,1
1.566,2697,1,1,0,1
1.568,2821,1,1,0,1
1.57,2931,1,1,0,1
1.572,3015,1,1,0,1
1.574,3061,1,1,0,1
1.576,3078,1,1,0,1
1.578,3067,1,1,0,1
1.58,3060,1,1,0,1
1.582,3069,1,1,0,1
1.584,3098,1,1,0,1
1.586,3133,1,1,0,1
1.588,3158,1,1,0,1
1.59,3159,1,1,0,1
1.592,3133,1,1,0,1
1.594,3089,1,1,0,1
1.596,3042,1,1,0,1
1.598,3013,1,1,0,1
1.6,3007,1,1,0,1
1.602,3022,1,1,0,1
1.604,3043,1,1,0,1
1.606,3049,1,1,0,1
1.608,3028,1,1,0,1
1.61,2986,1,1,0,1
1.612,2938,1,1,0,1
1.614,2906,1,1,0,1
1.616,2899,1,1,0,1
1.618,2915,1,1,0,1
1.62,2939,1,1,0,1
1.622,2957,1,1,0,1
1.624,2954,1,1,0,1
1.626,2923,1,1,0,1
1.628,2885,1,1,0,1
1.63,2859,1,1,0,1
1.632,2861,1,1,0,1
1.634,2889,1,1,0,1
1.636,2925,1,1,0,1
1.638,2961,1,1,0,1
1.64,2977,1,1,0,1
1.642,2973,1,1,0,1
1.644,2955,1,1,0,1
1.646,2937,1,1,0,1
1.648,2938,1,1,0,1
1.65,2970,1,1,0,1
1.652,3020,1,1,0,1
1.654,3069,1,1,0,1
1.656,3110,1,1,0,1
1.658,3129,1,1,0,1
1.66,3131,1,1,0,1
1.662,3138,1,1,0,1
1.664,3162,1,1,0,1
1.666,3211,1,1,0,1
1.668,3279,1,1,0,1
1.67,3354,1,1,0,1
1.672,3418,1,1,0,1
1.674,3462,1,1,0,1
1.676,3482,1,1,0,1
1.678,3492,1,1,0,1
1.68,3507,1,1,0,1
1.682,3542,1,1,0,1
1.684,3599,1,1,0,1
1.686,3667,1,1,0,1
1.688,3731,1,1,0,1
1.69,3769,1,1,0,1
1.692,3775,1,1,0,1
1.694,3765,1,1,0,1
1.696,3753,1,1,0,1
1.698,3753,1,1,0,1
1.7,3767,1,1,0,1
1.702,3798,1,1,0,1
1.704,3823,1,1,0,1
1.706,3829,1,1,0,1
1.708,3806,1,1,0,1
1.71,3757,1,1,0,1
1.712,3698,1,1,0,1
1.714,3653,1,1,0,1
1.716,3622,1,1,0,1
1.718,3606,1,1,0,1
1.72,3590,1,1,0,1
1.722,3555,1,1,0,1
1.724,3495,1,1,0,1
1.726,3405,1,1,0,1
1.728,3294,1,1,0,1
1.73,3183,1,1,0,1
1.732,3093,1,1,0,1
1.734,3021,1,1,0,1
1.736,2961,1,1,0,1
1.738,2891,1,1,0,1
1.74,2801,1,1,0,1
1.742,2683,1,1,0,1
1.744,2550,1,1,0,1
1.746,2421,1,1,0,1
1.748,2313,1,1,0,1
1.75,2229,1,1,0,1
1.752,2159,1,1,0,1
1.754,2091,1,1,0,1
1.756,2006,1,1,0,1
1.758,1903,1,1,0,1
1.76,1780,1,1,0,1
1.762,1658,1,1,0,1
1.764,1557,1,1,0,1
1.766,1483,1,1,0,1
1.768,1429,1,1,0,1
1.77,1387,1,1,0,1
1.772,1337,1,1,0,1
1.774,1265,1,1,0,1
1.776,1174,1,1,0,1
1.778,1076,1,1,0,1
1.78,994,1,1,0,1
1.782,941,1,1,0,1
1.784,915,1,1,0,1
1.786,906,1,1,0,1
1.788,898,1,1,0,1
1.79,875,1,1,0,1
1.792,836,1,1,0,1
1.794,782,1,1,0,1
1.796,734,1,1,0,1
1.798,710,1,1,0,1
1.8,713,1,1,0,1
1.802,732,1,1,0,1
1.804,754,1,1,0,1
1.806,762,1,1,0,1
1.808,751,1,1,0,1
1.81,720,1,1,0,1
1.812,687,1,1,0,1
1.814,675,1,1,0,1
1.816,691,1,1,0,1
1.818,727,1,1,0,1
1.82,771,1,1,0,1
1.822,804,1,1,0,1
1.824,818,1,1,0,1
1.826,813,1,1,0,1
1.828,804,1,1,0,1
1.83,805,1,1,0,1
1.832,828,1,1,0,1
1.834,873,1,1,0,1
1.836,927,1,1,0,1
1.838,973,1,1,0,1
1.84,997,1,1,0,1
1.842,1000,1,1,0,1
1.844,989,1,1,0,1
1.846,982,1,1,0,1
1.848,991,1,1,0,1
1.85,1026,1,1,0,1
1.852,1073,1,1,0,1
1.854,1121,1,1,0,1
1.856,1153,1,1,0,1
1.858,1161,1,1,0,1
1.86,1143,1,1,0,1
1.862,1123,1,1,0,1
1.864,1116,1,1,0,1
1.866,1131,1,1,0,1
1.868,1168,1,1,0,1
1.87,1213,1,1,0,1
1.872,1245,1,1,0,1
1.874,1258,1,1,0,1
1.876,1254,1,1,0,1
1.878,1247,1,1,0,1
1.88,1253,1,1,0,1
1.882,1278,1,1,0,1
1.884,1323,1,1,0,1
1.886,1377,1,1,0,1
1.888,1427,1,1,0,1
1.89,1458,1,1,0,1
1.892,1459,1,1,0,1
1.894,1441,1,1,0,1
1.896,1427,1,1,0,1
1.898,1432,1,1,0,1
1.9,1465,1,1,0,1
1.902,1514,1,1,0,1
1.904,1559,1,1,0,1
1.906,1583,1,1,0,1
1.908,1581,1,1,0,1
1.91,1555,1,1,0,1
1.912,1521,1,1,0,1
1.914,1502,1,1,0,1
1.916,1510,1,1,0,1
1.918,1539,1,1,0,1
1.92,1575,1,1,0,1
1.922,1603,1,1,0,1
1.924,1613,1,1,0,1
1.926,1603,1,1,0,1
1.928,1585,1,1,0,1
1.93,1579,1,1,0,1
1.932,1597,1,1,0,1
1.934,1639,1,1,0,1
1.936,1695,1,1,0,1
1.938,1745,1,1,0,1
1.94,1773,1,1,0,1
1.942,1771,1,1,0,1
1.944,1745,1,1,0,1
1.946,1711,1,1,0,1
1.948,1690,1,1,0,1
1.95,1689,1,1,0,1
1.952,1699,1,1,0,1
1.954,1707,1,1,0,1
1.956,1693,1,1,0,1
1.958,1650,1,1,0,1
1.96,1587,1,1,0,1
1.962,1518,1,1,0,1
1.964,1467,1,1,0,1
1.966,1439,1,1,0,1
1.968,1431,1,1,0,1
1.97,1433,1,1,0,1
1.972,1429,1,1,0,1
1.974,1407,1,1,0,1
1.976,1369,1,1,0,1
1.978,1321,1,1,0,1
1.98,1289,1,1,0,1
1.982,1279,1,1,0,1
1.984,1297,1,1,0,1
1.986,1325,1,1,0,1
1.988,1349,1,1,0,1
1.99,1361,1,1,0,1
1.992,1350,1,1,0,1
1.994,1326,1,1,0,1
1.996,1311,1,1,0,1
1.998,1318,1,1,0,1
2,1347,1,1,0,1
2.002,1394,1,1,0,1
2.004,1442,1,1,0,1
2.006,1471,1,1,0,1
2.008,1474,1,1,0,1
2.01,1455,1,1,0,1
2.012,1437,1,1,0,1
2.014,1437,1,1,0,1
2.016,1463,1,1,0,1
2.018,1508,1,1,0,1
2.02,1550,1,1,0,1
2.022,1576,1,1,0,1
2.024,1580,1,1,0,1
2.026,1571,1,1,0,1
2.028,1571,1,1,0,1
2.03,1609,1,1,0,1
2.032,1698,1,1,0,1
2.034,1844,1,1,0,1
2.036,2042,1,1,0,1
2.038,2281,1,1,0,1
2.04,2543,1,1,0,1
2.042,2815,1,1,0,1
2.044,3089,1,1,0,1
2.046,3335,1,1,0,1
2.048,3515,1,1,0,1
2.05,3603,1,1,0,1
2.052,3606,1,1,0,1
2.054,3529,1,1,0,1
2.056,3354,1,1,0,1
2.058,3081,1,1,0,1
2.06,2710,1,1,0,1
2.062,2249,1,1,0,1
2.064,1703,1,1,0,1
2.066,1097,1,1,0,1
2.068,458,1,1,0,1
2.07,35,1,1,0,1
2.072,1,1,1,0,1
2.074,0,1,1,0,1
2.076,0,1,1,0,1
2.078,0,1,1,0,1
2.08,0,1,1,0,1
2.082,0,1,1,0,1
2.084,0,1,1,0,1
2.086,0,1,1,0,1
2.088,0,1,1,0,1
2.09,0,1,1,0,1
2.092,0,1,1,0,1
2.094,0,1,1,0,1
2.096,0,1,1,0,1
2.098,0,1,1,0,1
2.1,0,1,1,0,1
2.102,0,1,1,0,1
2.104,0,1,1,0,1
2.106,40,1,1,0,1
2.108,150,1,1,0,1
2.11,308,1,1,0,1
2.112,500,1,1,0,1
2.114,728,1,1,0,1
2.116,987,1,1,0,1
2.118,1262,1,1,0,1
2.12,1535,1,1,0,1
2.122,1785,1,1,0,1
2.124,1991,1,1,0,1
2.126,2150,1,1,0,1
2.128,2271,1,1,0,1
2.13,2381,1,1,0,1
2.132,2491,1,1,0,1
2.134,2606,1,1,0,1
2.136,2711,1,1,0,1
2.138,2797,1,1,0,1
2.14,2854,1,1,0,1
2.142,2871,1,1,0,1
2.144,2861,1,1,0,1
2.146,2847,1,1,0,1
2.148,2847,1,1,0,1
2.15,2871,1,1,0,1
2.152,2903,1,1,0,1
2.154,2927,1,1,0,1
2.156,2930,1,1,0,1
2.158,2900,1,1,0,1
2.16,2845,1,1,0,1
2.162,2791,1,1,0,1
2.164,2757,1,1,0,1
2.166,2745,1,1,0,1
2.168,2750,1,1,0,1
2.17,2765,1,1,0,1
2.172,2769,1,1,0,1
2.174,2750,1,1,0,1
2.176,2713,1,1,0,1
2.178,2668,1,1,0,1
2.18,2641,1,1,0,1
2.182,2639,1,1,0,1
2.184,2658,1,1,0,1
2.186,2687,1,1,0,1
2.188,2713,1,1,0,1
2.19,2721,1,1,0,1
2.192,2706,1,1,0,1
2.194,2673,1,1,0,1
2.196,2645,1,1,0,1
2.198,2637,1,1,0,1
2.2,2657,1,1,0,1
2.202,2694,1,1,0,1
2.204,2731,1,1,0,1
2.206,2749,1,1,0,1
2.208,2746,1,1,0,1
2.21,2727,1,1,0,1
2.212,2707,1,1,0,1
2.214,2701,1,1,0,1
2.216,2721,1,1,0,1
2.218,2763,1,1,0,1
2.22,2811,1,1,0,1
2.222,2855,1,1,0,1
2.224,2886,1,1,0,1
2.226,2894,1,1,0,1
2.228,2899,1,1,0,1
2.23,2915,1,1,0,1
2.232,2953,1,1,0,1
2.234,3010,1,1,0,1
2.236,3078,1,1,0,1
2.238,3135,1,1,0,1
2.24,3177,1,1,0,1
2.242,3194,1,1,0,1
2.244,3193,1,1,0,1
2.246,3190,1,1,0,1
2.248,3205,1,1,0,1
2.25,3239,1,1,0,1
2.252,3290,1,1,0,1
2.254,3343,1,1,0,1
2.256,3379,1,1,0,1
2.258,3391,1,1,0,1
2.26,3386,1,1,0,1
2.262,3370,1,1,0,1
2.264,3362,1,1,0,1
2.266,3373,1,1,0,1
2.268,3398,1,1,0,1
2.27,3421,1,1,0,1
2.272,3428,1,1,0,1
2.274,3412,1,1,0,1
2.276,3372,1,1,0,1
2.278,3317,1,1,0,1
2.28,3263,1,1,0,1
2.282,3229,1,1,0,1
2.284,3213,1,1,0,1
2.286,3199,1,1,0,1
2.288,3177,1,1,0,1
2.29,3127,1,1,0,1
2.292,3050,1,1,0,1
2.294,2953,1,1,0,1
2.296,2843,1,1,0,1
2.298,2747,1,1,0,1
2.3,2677,1,1,0,1
2.302,2623,1,1,0,1
2.304,2571,1,1,0,1
2.306,2495,1,1,0,1
2.308,2391,1,1,0,1
2.31,2265,1,1,0,1
2.312,2136,1,1,0,1
2.314,2021,1,1,0,1
2.316,1933,1,1,0,1
2.318,1867,1,1,0,1
2.32,1812,1,1,0,1
2.322,1751,1,1,0,1
2.324,1674,1,1,0,1
2.326,1574,1,1,0,1
2.328,1465,1,1,0,1
2.33,1370,1,1,0,1
2.332,1302,1,1,0,1
2.334,1262,1,1,0,1
2.336,1240,1,1,0,1
2.338,1213,1,1,0,1
2.34,1161,1,1,0,1
2.342,1083,1,1,0,1
2.344,994,1,1,0,1
2.346,916,1,1,0,1
2.348,867,1,1,0,1
2.35,849,1,1,0,1
2.352,849,1,1,0,1
2.354,850,1,1,0,1
2.356,836,1,1,0,1
2.358,802,1,1,0,1
2.36,754,1,1,0,1
2.362,710,1,1,0,1
2.364,690,1,1,0,1
2.366,695,1,1,0,1
2.368,723,1,1,0,1
2.37,755,1,1,0,1
2.372,777,1,1,0,1
2.374,777,1,1,0,1
2.376,759,1,1,0,1
2.378,739,1,1,0,1
2.38,728,1,1,0,1
2.382,739,1,1,0,1
2.384,767,1,1,0,1
2.386,808,1,1,0,1
2.388,842,1,1,0,1
2.39,854,1,1,0,1
2.392,839,1,1,0,1
2.394,810,1,1,0,1
2.396,797,1,1,0,1
2.398,810,1,1,0,1
2.4,845,1,1,0,1
2.402,894,1,1,0,1
2.404,946,1,1,0,1
2.406,979,1,1,0,1
2.408,989,1,1,0,1
2.41,980,1,1,0,1
2.412,971,1,1,0,1
2.414,983,1,1,0,1
2.416,1023,1,1,0,1
2.418,1082,1,1,0,1
2.42,1142,1,1,0,1
2.422,1190,1,1,0,1
2.424,1213,1,1,0,1
2.426,1219,1,1,0,1
2.428,1215,1,1,0,1
2.43,1223,1,1,0,1
2.432,1252,1,1,0,1
2.434,1301,1,1,0,1
2.436,1355,1,1,0,1
2.438,1398,1,1,0,1
2.44,1419,1,1,0,1
2.442,1419,1,1,0,1
2.444,1411,1,1,0,1
2.446,1407,1,1,0,1
2.448,1428,1,1,0,1
2.45,1477,1,1,0,1
2.452,1540,1,1,0,1
2.454,1590,1,1,0,1
2.456,1618,1,1,0,1
2.458,1618,1,1,0,1
2.46,1601,1,1,0,1
2.462,1581,1,1,0,1
2.464,1578,1,1,0,1
2.466,1599,1,1,0,1
2.468,1639,1,1,0,1
2.47,1677,1,1,0,1
2.472,1695,1,1,0,1
2.474,1691,1,1,0,1
2.476,1668,1,1,0,1
2.478,1637,1,1,0,1
2.48,1622,1,1,0,1
2.482,1637,1,1,0,1
2.484,1677,1,1,0,1
2.486,1731,1,1,0,1
2.488,1779,1,1,0,1
2.49,1799,1,1,0,1
2.492,1795,1,1,0,1
2.494,1775,1,1,0,1
2.496,1763,1,1,0,1
2.498,1767,1,1,0,1
2.5,1794,1,1,0,1
2.502,1829,1,1,0,1
2.504,1855,1,1,0,1
2.506,1862,1,1,0,1
2.508,1846,1,1,0,1
2.51,1813,1,1,0,1
2.512,1771,1,1,0,1
2.514,1741,1,1,0,1
2.516,1727,1,1,0,1
2.518,1724,1,1,0,1
2.52,1719,1,1,0,1
2.522,1702,1,1,0,1
2.524,1666,1,1,0,1
2.526,1610,1,1,0,1
2.528,1548,1,1,0,1
2.53,1509,1,1,0,1
2.532,1498,1,1,0,1
2.534,1510,1,1,0,1
2.536,1535,1,1,0,1
2.538,1559,1,1,0,1
2.54,1563,1,1,0,1
2.542,1543,1,1,0,1
2.544,1509,1,1,0,1
2.546,1485,1,1,0,1
2.548,1485,1,1,0,1
2.55,1512,1,1,0,1
2.552,1561,1,1,0,1
2.554,1610,1,1,0,1
2.556,1639,1,1,0,1
2.558,1642,1,1,0,1
2.56,1627,1,1,0,1
2.562,1614,1,1,0,1
2.564,1621,1,1,0,1
2.566,1649,1,1,0,1
2.568,1692,1,1,0,1
2.57,1742,1,1,0,1
2.572,1785,1,1,0,1
2.574,1810,1,1,0,1
2.576,1806,1,1,0,1
2.578,1789,1,1,0,1
2.58,1777,1,1,0,1
2.582,1783,1,1,0,1
2.584,1819,1,1,0,1
2.586,1881,1,1,0,1
2.588,1957,1,1,0,1
2.59,2039,1,1,0,1
2.592,2133,1,1,0,1
2.594,2250,1,1,0,1
2.596,2419,1,1,0,1
2.598,2651,1,1,0,1
2.6,2938,1,1,0,1
2.602,3250,1,1,0,1
2.604,3525,1,1,0,1
2.606,3703,1,1,0,1
2.608,3748,1,1,0,1
2.61,3673,1,1,0,1
2.612,3513,1,1,0,1
2.614,3295,1,1,0,1
2.616,3035,1,1,0,1
2.618,2733,1,1,0,1
2.62,2357,1,1,0,1
2.622,1883,1,1,0,1
2.624,1322,1,1,0,1
2.626,706,1,1,0,1
2.628,118,1,1,0,1
2.63,6,1,1,0,1
2.632,1,1,1,0,1
2.634,0,1,1,0,1
2.636,0,1,1,0,1
2.638,0,1,1,0,1
2.64,0,1,1,0,1
2.642,0,1,1,0,1
2.644,0,1,1,0,1
2.646,0,1,1,0,1
2.648,0,1,1,0,1
2.65,0,1,1,0,1
2.652,0,1,1,0,1
2.654,0,1,1,0,1
2.656,0,1,1,0,1
2.658,0,1,1,0,1
2.66,22,1,1,0,1
2.662,117,1,1,0,1
2.664,281,1,1,0,1
2.666,514,1,1,0,1
2.668,797,1,1,0,1
2.67,1101,1,1,0,1
2.672,1391,1,1,0,1
2.674,1651,1,1,0,1
2.676,1871,1,1,0,1
2.678,2070,1,1,0,1
2.68,2260,1,1,0,1
2.682,2451,1,1,0,1
2.684,2638,1,1,0,1
2.686,2805,1,1,0,1
2.688,2942,1,1,0,1
2.69,3037,1,1,0,1
2.692,3094,1,1,0,1
2.694,3117,1,1,0,1
2.696,3129,1,1,0,1
2.698,3149,1,1,0,1
2.7,3191,1,1,0,1
2.702,3243,1,1,0,1
2.704,3281,1,1,0,1
2.706,3294,1,1,0,1
2.708,3282,1,1,0,1
2.71,3243,1,1,0,1
2.712,3198,1,1,0,1
2.714,3170,1,1,0,1
2.716,3162,1,1,0,1
2.718,3173,1,1,0,1
2.72,3185,1,1,0,1
2.722,3185,1,1,0,1
2.724,3162,1,1,0,1
2.726,3118,1,1,0,1
2.728,3066,1,1,0,1
2.73,3029,1,1,0,1
2.732,3015,1,1,0,1
2.734,3023,1,1,0,1
2.736,3043,1,1,0,1
2.738,3060,1,1,0,1
2.74,3059,1,1,0,1
2.742,3034,1,1,0,1
2.744,2995,1,1,0,1
2.746,2959,1,1,0,1
2.748,2947,1,1,0,1
2.75,2957,1,1,0,1
2.752,2985,1,1,0,1
2.754,3015,1,1,0,1
2.756,3030,1,1,0,1
2.758,3023,1,1,0,1
2.76,2998,1,1,0,1
2.762,2974,1,1,0,1
2.764,2969,1,1,0,1
2.766,2989,1,1,0,1
2.768,3029,1,1,0,1
2.77,3079,1,1,0,1
2.772,3118,1,1,0,1
2.774,3135,1,1,0,1
2.776,3134,1,1,0,1
2.778,3130,1,1,0,1
2.78,3142,1,1,0,1
2.782,3181,1,1,0,1
2.784,3241,1,1,0,1
2.786,3307,1,1,0,1
2.788,3367,1,1,0,1
2.79,3406,1,1,0,1
2.792,3421,1,1,0,1
2.794,3423,1,1,0,1
2.796,3431,1,1,0,1
2.798,3462,1,1,0,1
2.8,3517,1,1,0,1
2.802,3589,1,1,0,1
2.804,3651,1,1,0,1
2.806,3693,1,1,0,1
2.808,3716,1,1,0,1
2.81,3719,1,1,0,1
2.812,3721,1,1,0,1
2.814,3732,1,1,0,1
2.816,3761,1,1,0,1
2.818,3798,1,1,0,1
2.82,3831,1,1,0,1
2.822,3851,1,1,0,1
2.824,3839,1,1,0,1
2.826,3806,1,1,0,1
2.828,3757,1,1,0,1
2.83,3715,1,1,0,1
2.832,3693,1,1,0,1
2.834,3689,1,1,0,1
2.836,3686,1,1,0,1
2.838,3669,1,1,0,1
2.84,3627,1,1,0,1
2.842,3555,1,1,0,1
2.844,3463,1,1,0,1
2.846,3373,1,1,0,1
2.848,3301,1,1,0,1
2.85,3247,1,1,0,1
2.852,3205,1,1,0,1
2.854,3154,1,1,0,1
2.856,3081,1,1,0,1
2.858,2979,1,1,0,1
2.86,2855,1,1,0,1
2.862,2733,1,1,0,1
2.864,2631,1,1,0,1
2.866,2555,1,1,0,1
2.868,2499,1,1,0,1
2.87,2445,1,1,0,1
2.872,2379,1,1,0,1
2.874,2292,1,1,0,1
2.876,2189,1,1,0,1
2.878,2082,1,1,0,1
2.88,1989,1,1,0,1
2.882,1925,1,1,0,1
2.884,1881,1,1,0,1
2.886,1851,1,1,0,1
2.888,1817,1,1,0,1
2.89,1765,1,1,0,1
2.892,1693,1,1,0,1
2.894,1606,1,1,0,1
2.896,1528,1,1,0,1
2.898,1476,1,1,0,1
2.9,1449,1,1,0,1
2.902,1438,1,1,0,1
2.904,1426,1,1,0,1
2.906,1398,1,1,0,1
2.908,1351,1,1,0,1
2.91,1290,1,1,0,1
2.912,1233,1,1,0,1
2.914,1198,1,1,0,1
2.916,1193,1,1,0,1
2.918,1210,1,1,0,1
2.92,1231,1,1,0,1
2.922,1242,1,1,0,1
2.924,1228,1,1,0,1
2.926,1195,1,1,0,1
2.928,1161,1,1,0,1
2.93,1142,1,1,0,1
2.932,1150,1,1,0,1
2.934,1181,1,1,0,1
2.936,1218,1,1,0,1
2.938,1244,1,1,0,1
2.94,1250,1,1,0,1
2.942,1235,1,1,0,1
2.944,1208,1,1,0,1
2.946,1192,1,1,0,1
2.948,1199,1,1,0,1
2.95,1231,1,1,0,1
2.952,1278,1,1,0,1
2.954,1324,1,1,0,1
2.956,1353,1,1,0,1
2.958,1361,1,1,0,1
2.96,1348,1,1,0,1
2.962,1333,1,1,0,1
2.964,1333,1,1,0,1
2.966,1357,1,1,0,1
2.968,1402,1,1,0,1
2.97,1449,1,1,0,1
2.972,1483,1,1,0,1
2.974,1498,1,1,0,1
2.976,1492,1,1,0,1
2.978,1481,1,1,0,1
2.98,1485,1,1,0,1
2.982,1512,1,1,0,1
2.984,1558,1,1,0,1
2.986,1615,1,1,0,1
2.988,1662,1,1,0,1
2.99,1690,1,1,0,1
2.992,1693,1,1,0,1
2.994,1683,1,1,0,1
2.996,1684,1,1,0,1
2.998,1706,1,1,0,1
3,1747,1,1,0,1
3.002,1795,1,1,0,1
3.004,1835,1,1,0,1
3.006,1853,1,1,0,1
3.008,1851,1,1,0,1
3.01,1831,1,1,0,1
3.012,1812,1,1,0,1
3.014,1805,1,1,0,1
3.016,1821,1,1,0,1
3.018,1855,1,1,0,1
3.02,1895,1,1,0,1
3.022,1914,1,1,0,1
3.024,1909,1,1,0,1
3.026,1884,1,1,0,1
3.028,1855,1,1,0,1
3.03,1844,1,1,0,1
3.032,1862,1,1,0,1
3.034,1907,1,1,0,1
3.036,1962,1,1,0,1
3.038,2005,1,1,0,1
3.04,2029,1,1,0,1
3.042,2031,1,1,0,1
3.044,2021,1,1,0,1
3.046,2014,1,1,0,1
3.048,2025,1,1,0,1
3.05,2059,1,1,0,1
3.052,2101,1,1,0,1
3.054,2134,1,1,0,1
3.056,2141,1,1,0,1
3.058,2118,1,1,0,1
3.06,2069,1,1,0,1
3.062,2013,1,1,0,1
3.064,1975,1,1,0,1
3.066,1958,1,1,0,1
3.068,1955,1,1,0,1
3.07,1954,1,1,0,1
3.072,1938,1,1,0,1
3.074,1895,1,1,0,1
3.076,1826,1,1,0,1
3.078,1745,1,1,0,1
3.08,1679,1,1,0,1
3.082,1643,1,1,0,1
3.084,1635,1,1,0,1
3.086,1646,1,1,0,1
3.088,1655,1,1,0,1
3.09,1651,1,1,0,1
3.092,1629,1,1,0,1
3.094,1598,1,1,0,1
3.096,1578,1,1,0,1
3.098,1578,1,1,0,1
3.1,1601,1,1,0,1
3.102,1639,1,1,0,1
3.104,1678,1,1,0,1
3.106,1701,1,1,0,1
3.108,1705,1,1,0,1
3.11,1692,1,1,0,1
3.112,1685,1,1,0,1
3.114,1698,1,1,0,1
3.116,1732,1,1,0,1
3.118,1780,1,1,0,1
3.12,1828,1,1,0,1
3.122,1862,1,1,0,1
3.124,1876,1,1,0,1
3.126,1869,1,1,0,1
3.128,1858,1,1,0,1
3.13,1857,1,1,0,1
3.132,1878,1,1,0,1
3.134,1913,1,1,0,1
3.136,1956,1,1,0,1
3.138,1999,1,1,0,1
3.14,2035,1,1,0,1
3.142,2063,1,1,0,1
3.144,2101,1,1,0,1
3.146,2182,1,1,0,1
3.148,2327,1,1,0,1
3.15,2542,1,1,0,1
3.152,2810,1,1,0,1
3.154,3101,1,1,0,1
3.156,3382,1,1,0,1
3.158,3599,1,1,0,1
3.16,3698,1,1,0,1
3.162,3678,1,1,0,1
3.164,3577,1,1,0,1
3.166,3423,1,1,0,1
3.168,3211,1,1,0,1
3.17,2933,1,1,0,1
3.172,2589,1,1,0,1
3.174,2149,1,1,0,1
3.176,1612,1,1,0,1
3.178,1008,1,1,0,1
3.18,397,1,1,0,1
3.182,29,1,1,0,1
3.184,1,1,1,0,1
3.186,0,1,1,0,1
3.188,0,1,1,0,1
3.19,0,1,1,0,1
3.192,0,1,1,0,1
3.194,0,1,1,0,1
3.196,0,1,1,0,1
3.198,0,1,1,0,1
3.2,0,1,1,0,1
3.202,0,1,1,0,1
3.204,0,1,1,0,1
3.206,0,1,1,0,1
3.208,0,1,1,0,1
3.21,0,1,1,0,1
3.212,1,1,1,0,1
3.214,70,1,1,0,1
3.216,239,1,1,0,1
3.218,480,1,1,0,1
3.22,763,1,1,0,1
3.222,1055,1,1,0,1
3.224,1334,1,1,0,1
3.226,1590,1,1,0,1
3.228,1827,1,1,0,1
3.23,2061,1,1,0,1
3.232,2290,1,1,0,1
3.234,2514,1,1,0,1
3.236,2722,1,1,0,1
3.238,2898,1,1,0,1
3.24,3031,1,1,0,1
3.242,3121,1,1,0,1
3.244,3175,1,1,0,1
3.246,3213,1,1,0,1
3.248,3251,1,1,0,1
3.25,3295,1,1,0,1
3.252,3341,1,1,0,1
3.254,3373,1,1,0,1
3.256,3382,1,1,0,1
3.258,3365,1,1,0,1
3.26,3323,1,1,0,1
3.262,3278,1,1,0,1
3.264,3250,1,1,0,1
3.266,3239,1,1,0,1
3.268,3245,1,1,0,1
3.27,3253,1,1,0,1
3.272,3245,1,1,0,1
3.274,3219,1,1,0,1
3.276,3174,1,1,0,1
3.278,3126,1,1,0,1
3.28,3091,1,1,0,1
3.282,3071,1,1,0,1
3.284,3081,1,1,0,1
3.286,3094,1,1,0,1
3.288,3101,1,1,0,1
3.29,3091,1,1,0,1
3.292,3058,1,1,0,1
3.294,3017,1,1,0,1
3.296,2983,1,1,0,1
3.298,2973,1,1,0,1
3.3,2989,1,1,0,1
3.302,3017,1,1,0,1
3.304,3037,1,1,0,1
3.306,3039,1,1,0,1
3.308,3023,1,1,0,1
3.31,2993,1,1,0,1
3.312,2965,1,1,0,1
3.314,2957,1,1,0,1
3.316,2973,1,1,0,1
3.318,3010,1,1,0,1
3.32,3052,1,1,0,1
3.322,3084,1,1,0,1
3.324,3089,1,1,0,1
3.326,3070,1,1,0,1
3.328,3053,1,1,0,1
3.33,3053,1,1,0,1
3.332,3083,1,1,0,1
3.334,3134,1,1,0,1
3.336,3195,1,1,0,1
3.338,3251,1,1,0,1
3.34,3285,1,1,0,1
3.342,3298,1,1,0,1
3.344,3302,1,1,0,1
3.346,3314,1,1,0,1
3.348,3348,1,1,0,1
3.35,3403,1,1,0,1
3.352,3474,1,1,0,1
3.354,3535,1,1,0,1
3.356,3579,1,1,0,1
3.358,3602,1,1,0,1
3.36,3605,1,1,0,1
3.362,3607,1,1,0,1
3.364,3623,1,1,0,1
3.366,3658,1,1,0,1
3.368,3701,1,1,0,1
3.37,3747,1,1,0,1
3.372,3774,1,1,0,1
3.374,3780,1,1,0,1
3.376,3762,1,1,0,1
3.378,3737,1,1,0,1
3.38,3723,1,1,0,1
3.382,3722,1,1,0,1
3.384,3733,1,1,0,1
3.386,3743,1,1,0,1
3.388,3739,1,1,0,1
3.39,3705,1,1,0,1
3.392,3645,1,1,0,1
3.394,3567,1,1,0,1
3.396,3495,1,1,0,1
3.398,3429,1,1,0,1
3.4,3371,1,1,0,1
3.402,3322,1,1,0,1
3.404,3274,1,1,0,1
3.406,3209,1,1,0,1
3.408,3118,1,1,0,1
3.41,3007,1,1,0,1
3.412,2893,1,1,0,1
3.414,2789,1,1,0,1
3.416,2707,1,1,0,1
3.418,2645,1,1,0,1
3.42,2587,1,1,0,1
3.422,2515,1,1,0,1
3.424,2418,1,1,0,1
3.426,2301,1,1,0,1
3.428,2181,1,1,0,1
3.43,2075,1,1,0,1
3.432,1997,1,1,0,1
3.434,1943,1,1,0,1
3.436,1901,1,1,0,1
3.438,1851,1,1,0,1
3.44,1785,1,1,0,1
3.442,1698,1,1,0,1
3.444,1599,1,1,0,1
3.446,1513,1,1,0,1
3.448,1451,1,1,0,1
3.45,1415,1,1,0,1
3.452,1393,1,1,0,1
3.454,1371,1,1,0,1
3.456,1339,1,1,0,1
3.458,1286,1,1,0,1
3.46,1218,1,1,0,1
3.462,1153,1,1,0,1
3.464,1110,1,1,0,1
3.466,1092,1,1,0,1
3.468,1094,1,1,0,1
3.47,1103,1,1,0,1
3.472,1105,1,1,0,1
3.474,1089,1,1,0,1
3.476,1055,1,1,0,1
3.478,1017,1,1,0,1
3.48,997,1,1,0,1
3.482,1003,1,1,0,1
3.484,1033,1,1,0,1
3.486,1069,1,1,0,1
3.488,1096,1,1,0,1
3.49,1107,1,1,0,1
3.492,1095,1,1,0,1
3.494,1071,1,1,0,1
3.496,1057,1,1,0,1
3.498,1065,1,1,0,1
3.5,1097,1,1,0,1
3.502,1141,1,1,0,1
3.504,1182,1,1,0,1
3.506,1205,1,1,0,1
3.508,1203,1,1,0,1
3.51,1188,1,1,0,1
3.512,1177,1,1,0,1
3.514,1185,1,1,0,1
3.516,1218,1,1,0,1
3.518,1268,1,1,0,1
3.52,1321,1,1,0,1
3.522,1359,1,1,0,1
3.524,1372,1,1,0,1
3.526,1361,1,1,0,1
3.528,1341,1,1,0,1
3.53,1341,1,1,0,1
3.532,1367,1,1,0,1
3.534,1411,1,1,0,1
3.536,1462,1,1,0,1
3.538,1506,1,1,0,1
3.54,1526,1,1,0,1
3.542,1525,1,1,0,1
3.544,1515,1,1,0,1
3.546,1521,1,1,0,1
3.548,1551,1,1,0,1
3.55,1603,1,1,0,1
3.552,1663,1,1,0,1
3.554,1715,1,1,0,1
3.556,1743,1,1,0,1
3.558,1746,1,1,0,1
3.56,1731,1,1,0,1
3.562,1717,1,1,0,1
3.564,1719,1,1,0,1
3.566,1741,1,1,0,1
3.568,1772,1,1,0,1
3.57,1801,1,1,0,1
3.572,1812,1,1,0,1
3.574,1802,1,1,0,1
3.576,1774,1,1,0,1
3.578,1745,1,1,0,1
3.58,1733,1,1,0,1
3.582,1746,1,1,0,1
3.584,1783,1,1,0,1
3.586,1835,1,1,0,1
3.588,1882,1,1,0,1
3.59,1913,1,1,0,1
3.592,1922,1,1,0,1
3.594,1915,1,1,0,1
3.596,1914,1,1,0,1
3.598,1930,1,1,0,1
3.6,1967,1,1,0,1
3.602,2014,1,1,0,1
3.604,2053,1,1,0,1
3.606,2062,1,1,0,1
3.608,2042,1,1,0,1
3.61,2003,1,1,0,1
3.612,1962,1,1,0,1
3.614,1935,1,1,0,1
3.616,1929,1,1,0,1
3.618,1926,1,1,0,1
3.62,1917,1,1,0,1
3.622,1890,1,1,0,1
3.624,1836,1,1,0,1
3.626,1758,1,1,0,1
3.628,1676,1,1,0,1
3.63,1610,1,1,0,1
3.632,1573,1,1,0,1
3.634,1563,1,1,0,1
3.636,1567,1,1,0,1
3.638,1567,1,1,0,1
3.64,1553,1,1,0,1
3.642,1518,1,1,0,1
3.644,1478,1,1,0,1
3.646,1453,1,1,0,1
3.648,1453,1,1,0,1
3.65,1481,1,1,0,1
3.652,1524,1,1,0,1
3.654,1569,1,1,0,1
3.656,1593,1,1,0,1
3.658,1592,1,1,0,1
3.66,1574,1,1,0,1
3.662,1559,1,1,0,1
3.664,1562,1,1,0,1
3.666,1589,1,1,0,1
3.668,1629,1,1,0,1
3.67,1671,1,1,0,1
3.672,1699,1,1,0,1
3.674,1705,1,1,0,1
3.676,1695,1,1,0,1
3.678,1681,1,1,0,1
3.68,1676,1,1,0,1
3.682,1690,1,1,0,1
3.684,1719,1,1,0,1
3.686,1751,1,1,0,1
3.688,1782,1,1,0,1
3.69,1806,1,1,0,1
3.692,1829,1,1,0,1
3.694,1870,1,1,0,1
3.696,1959,1,1,0,1
3.698,2117,1,1,0,1
3.7,2343,1,1,0,1
3.702,2633,1,1,0,1
3.704,2958,1,1,0,1
3.706,3283,1,1,0,1
3.708,3561,1,1,0,1
3.71,3742,1,1,0,1
3.712,3796,1,1,0,1
3.714,3743,1,1,0,1
3.716,3618,1,1,0,1
3.718,3419,1,1,0,1
3.72,3143,1,1,0,1
3.722,2778,1,1,0,1
3.724,2318,1,1,0,1
3.726,1746,1,1,0,1
3.728,1087,1,1,0,1
3.73,405,1,1,0,1
3.732,27,1,1,0,1
3.734,1,1,1,0,1
3.736,0,1,1,0,1
3.738,0,1,1,0,1
3.74,0,1,1,0,1
3.742,0,1,1,0,1
3.744,0,1,1,0,1
3.746,0,1,1,0,1
3.748,0,1,1,0,1
3.75,0,1,1,0,1
3.752,0,1,1,0,1
3.754,0,1,1,0,1
3.756,0,1,1,0,1
3.758,0,1,1,0,1
3.76,0,1,1,0,1
3.762,0,1,1,0,1
3.764,0,1,1,0,1
3.766,46,1,1,0,1
3.768,216,1,1,0,1
3.77,461,1,1,0,1
3.772,737,1,1,0,1
3.774,1011,1,1,0,1
3.776,1271,1,1,0,1
3.778,1519,1,1,0,1
3.78,1769,1,1,0,1
3.782,2022,1,1,0,1
3.784,2274,1,1,0,1
3.786,2506,1,1,0,1
3.788,2703,1,1,0,1
3.79,2855,1,1,0,1
3.792,2961,1,1,0,1
3.794,3030,1,1,0,1
3.796,3086,1,1,0,1
3.798,3145,1,1,0,1
3.8,3205,1,1,0,1
3.802,3259,1,1,0,1
3.804,3295,1,1,0,1
3.806,3308,1,1,0,1
3.808,3287,1,1,0,1
3.81,3242,1,1,0,1
3.812,3194,1,1,0,1
3.814,3165,1,1,0,1
3.816,3162,1,1,0,1
3.818,3173,1,1,0,1
3.82,3182,1,1,0,1
3.822,3177,1,1,0,1
3.824,3150,1,1,0,1
3.826,3102,1,1,0,1
3.828,3049,1,1,0,1
3.83,3014,1,1,0,1
3.832,3003,1,1,0,1
3.834,3013,1,1,0,1
3.836,3030,1,1,0,1
3.838,3038,1,1,0,1
3.84,3025,1,1,0,1
3.842,2990,1,1,0,1
3.844,2950,1,1,0,1
3.846,2921,1,1,0,1
3.848,2917,1,1,0,1
3.85,2933,1,1,0,1
3.852,2964,1,1,0,1
3.854,2987,1,1,0,1
3.856,2991,1,1,0,1
3.858,2973,1,1,0,1
3.86,2940,1,1,0,1
3.862,2911,1,1,0,1
3.864,2907,1,1,0,1
3.866,2925,1,1,0,1
3.868,2957,1,1,0,1
3.87,2990,1,1,0,1
3.872,3011,1,1,0,1
3.874,3011,1,1,0,1
3.876,2994,1,1,0,1
3.878,2974,1,1,0,1
3.88,2970,1,1,0,1
3.882,2989,1,1,0,1
3.884,3029,1,1,0,1
3.886,3082,1,1,0,1
3.888,3125,1,1,0,1
3.89,3149,1,1,0,1
3.892,3150,1,1,0,1
3.894,3147,1,1,0,1
3.896,3155,1,1,0,1
3.898,3185,1,1,0,1
3.9,3237,1,1,0,1
3.902,3301,1,1,0,1
3.904,3359,1,1,0,1
3.906,3403,1,1,0,1
3.908,3421,1,1,0,1
3.91,3427,1,1,0,1
3.912,3437,1,1,0,1
3.914,3469,1,1,0,1
3.916,3523,1,1,0,1
3.918,3590,1,1,0,1
3.92,3657,1,1,0,1
3.922,3703,1,1,0,1
3.924,3725,1,1,0,1
3.926,3719,1,1,0,1
3.928,3706,1,1,0,1
3.93,3703,1,1,0,1
3.932,3723,1,1,0,1
3.934,3757,1,1,0,1
3.936,3789,1,1,0,1
3.938,3803,1,1,0,1
3.94,3789,1,1,0,1
3.942,3746,1,1,0,1
3.944,3683,1,1,0,1
3.946,3627,1,1,0,1
3.948,3582,1,1,0,1
3.95,3556,1,1,0,1
3.952,3531,1,1,0,1
3.954,3499,1,1,0,1
3.956,3438,1,1,0,1
3.958,3349,1,1,0,1
3.96,3234,1,1,0,1
3.962,3113,1,1,0,1
3.964,3007,1,1,0,1
3.966,2925,1,1,0,1
3.968,2857,1,1,0,1
3.97,2787,1,1,0,1
3.972,2701,1,1,0,1
3.974,2591,1,1,0,1
3.976,2461,1,1,0,1
3.978,2328,1,1,0,1
3.98,2212,1,1,0,1
3.982,2123,1,1,0,1
3.984,2058,1,1,0,1
3.986,1999,1,1,0,1
3.988,1935,1,1,0,1
3.99,1851,1,1,0,1
3.992,1747,1,1,0,1
3.994,1634,1,1,0,1
3.996,1535,1,1,0,1
3.998,1463,1,1,0,1
4,1412,1,1,0,1
4.002,1375,1,1,0,1
4.004,1339,1,1,0,1
4.006,1288,1,1,0,1
4.008,1221,1,1,0,1
4.01,1144,1,1,0,1
4.012,1075,1,1,0,1
4.014,1030,1,1,0,1
4.016,1011,1,1,0,1
4.018,1013,1,1,0,1
4.02,1019,1,1,0,1
4.022,1014,1,1,0,1
4.024,990,1,1,0,1
4.026,947,1,1,0,1
4.028,901,1,1,0,1
4.03,872,1,1,0,1
4.032,871,1,1,0,1
4.034,895,1,1,0,1
4.036,930,1,1,0,1
4.038,954,1,1,0,1
4.04,958,1,1,0,1
4.042,945,1,1,0,1
4.044,925,1,1,0,1
4.046,916,1,1,0,1
4.048,932,1,1,0,1
4.05,969,1,1,0,1
4.052,1014,1,1,0,1
4.054,1057,1,1,0,1
4.056,1081,1,1,0,1
4.058,1082,1,1,0,1
4.06,1068,1,1,0,1
4.062,1059,1,1,0,1
4.064,1067,1,1,0,1
4.066,1098,1,1,0,1
4.068,1144,1,1,0,1
4.07,1193,1,1,0,1
4.072,1226,1,1,0,1
4.074,1238,1,1,0,1
4.076,1229,1,1,0,1
4.078,1218,1,1,0,1
4.08,1222,1,1,0,1
4.082,1251,1,1,0,1
4.084,1297,1,1,0,1
4.086,1349,1,1,0,1
4.088,1395,1,1,0,1
4.09,1423,1,1,0,1
4.092,1428,1,1,0,1
4.094,1425,1,1,0,1
4.096,1431,1,1,0,1
4.098,1463,1,1,0,1
4.1,1517,1,1,0,1
4.102,1580,1,1,0,1
4.104,1636,1,1,0,1
4.106,1668,1,1,0,1
4.108,1673,1,1,0,1
4.11,1659,1,1,0,1
4.112,1645,1,1,0,1
4.114,1649,1,1,0,1
4.116,1674,1,1,0,1
4.118,1710,1,1,0,1
4.12,1745,1,1,0,1
4.122,1761,1,1,0,1
4.124,1751,1,1,0,1
4.126,1721,1,1,0,1
4.128,1689,1,1,0,1
4.13,1674,1,1,0,1
4.132,1690,1,1,0,1
4.134,1733,1,1,0,1
4.136,1786,1,1,0,1
4.138,1835,1,1,0,1
4.14,1863,1,1,0,1
4.142,1870,1,1,0,1
4.144,1863,1,1,0,1
4.146,1863,1,1,0,1
4.148,1882,1,1,0,1
4.15,1918,1,1,0,1
4.152,1961,1,1,0,1
4.154,1993,1,1,0,1
4.156,1997,1,1,0,1
4.158,1971,1,1,0,1
4.16,1927,1,1,0,1
4.162,1882,1,1,0,1
4.164,1853,1,1,0,1
4.166,1839,1,1,0,1
4.168,1831,1,1,0,1
4.17,1814,1,1,0,1
4.172,1779,1,1,0,1
4.174,1722,1,1,0,1
4.176,1643,1,1,0,1
4.178,1557,1,1,0,1
4.18,1487,1,1,0,1
4.182,1449,1,1,0,1
4.184,1435,1,1,0,1
4.186,1432,1,1,0,1
4.188,1422,1,1,0,1
4.19,1398,1,1,0,1
4.192,1359,1,1,0,1
4.194,1314,1,1,0,1
4.196,1279,1,1,0,1
4.198,1274,1,1,0,1
4.2,1298,1,1,0,1
4.202,1339,1,1,0,1
4.204,1382,1,1,0,1
4.206,1405,1,1,0,1
4.208,1406,1,1,0,1
4.21,1390,1,1,0,1
4.212,1380,1,1,0,1
4.214,1387,1,1,0,1
4.216,1418,1,1,0,1
4.218,1462,1,1,0,1
4.22,1508,1,1,0,1
4.222,1534,1,1,0,1
4.224,1541,1,1,0,1
4.226,1524,1,1,0,1
4.228,1502,1,1,0,1
4.23,1487,1,1,0,1
4.232,1485,1,1,0,1
4.234,1494,1,1,0,1
4.236,1496,1,1,0,1
4.238,1490,1,1,0,1
4.24,1478,1,1,0,1
4.242,1474,1,1,0,1
4.244,1500,1,1,0,1
4.246,1582,1,1,0,1
4.248,1741,1,1,0,1
4.25,1988,1,1,0,1
4.252,2317,1,1,0,1
4.254,2701,1,1,0,1
4.256,3106,1,1,0,1
4.258,3494,1,1,0,1
4.26,3821,1,1,0,1
4.262,4026,1,1,0,1
4.264,4059,1,1,0,1
4.266,4061,1,1,0,1
4.268,3995,1,1,0,1
4.27,3823,1,1,0,1
4.272,3546,1,1,0,1
4.274,3149,1,1,0,1
4.276,2615,1,1,0,1
4.278,1954,1,1,0,1
4.28,1210,1,1,0,1
4.282,458,1,1,0,1
4.284,31,1,1,0,1
4.286,1,1,1,0,1
4.288,0,1,1,0,1
4.29,0,1,1,0,1
4.292,0,1,1,0,1
4.294,0,1,1,0,1
4.296,0,1,1,0,1
4.298,0,1,1,0,1
4.3,0,1,1,0,1
4.302,0,1,1,0,1
4.304,0,1,1,0,1
4.306,0,1,1,0,1
4.308,0,1,1,0,1
4.31,0,1,1,0,1
4.312,0,1,1,0,1
4.314,0,1,1,0,1
4.316,0,1,1,0,1
4.318,0,1,1,0,1
4.32,37,1,1,0,1
4.322,178,1,1,0,1
4.324,370,1,1,0,1
4.326,585,1,1,0,1
4.328,815,1,1,0,1
4.33,1069,1,1,0,1
4.332,1346,1,1,0,1
4.334,1630,1,1,0,1
4.336,1903,1,1,0,1
4.338,2147,1,1,0,1
4.34,2346,1,1,0,1
4.342,2495,1,1,0,1
4.344,2613,1,1,0,1
4.346,2713,1,1,0,1
4.348,2813,1,1,0,1
4.35,2916,1,1,0,1
4.352,3015,1,1,0,1
4.354,3097,1,1,0,1
4.356,3147,1,1,0,1
4.358,3162,1,1,0,1
4.36,3151,1,1,0,1
4.362,3133,1,1,0,1
4.364,3127,1,1,0,1
4.366,3141,1,1,0,1
4.368,3163,1,1,0,1
4.37,3183,1,1,0,1
4.372,3185,1,1,0,1
4.374,3162,1,1,0,1
4.376,3118,1,1,0,1
4.378,3067,1,1,0,1
4.38,3033,1,1,0,1
4.382,3022,1,1,0,1
4.384,3029,1,1,0,1
4.386,3039,1,1,0,1
4.388,3038,1,1,0,1
4.39,3019,1,1,0,1
4.392,2982,1,1,0,1
4.394,2937,1,1,0,1
4.396,2905,1,1,0,1
4.398,2898,1,1,0,1
4.4,2914,1,1,0,1
4.402,2939,1,1,0,1
4.404,2959,1,1,0,1
4.406,2962,1,1,0,1
4.408,2943,1,1,0,1
4.41,2914,1,1,0,1
4.412,2887,1,1,0,1
4.414,2882,1,1,0,1
4.416,2898,1,1,0,1
4.418,2929,1,1,0,1
4.42,2963,1,1,0,1
4.422,2981,1,1,0,1
4.424,2978,1,1,0,1
4.426,2957,1,1,0,1
4.428,2935,1,1,0,1
4.43,2935,1,1,0,1
4.432,2962,1,1,0,1
4.434,3007,1,1,0,1
4.436,3063,1,1,0,1
4.438,3110,1,1,0,1
4.44,3131,1,1,0,1
4.442,3133,1,1,0,1
4.444,3126,1,1,0,1
4.446,3131,1,1,0,1
4.448,3161,1,1,0,1
4.45,3215,1,1,0,1
4.452,3282,1,1,0,1
4.454,3343,1,1,0,1
4.456,3387,1,1,0,1
4.458,3411,1,1,0,1
4.46,3418,1,1,0,1
4.462,3433,1,1,0,1
4.464,3469,1,1,0,1
4.466,3527,1,1,0,1
4.468,3599,1,1,0,1
4.47,3666,1,1,0,1
4.472,3717,1,1,0,1
4.474,3738,1,1,0,1
4.476,3738,1,1,0,1
4.478,3732,1,1,0,1
4.48,3738,1,1,0,1
4.482,3762,1,1,0,1
4.484,3801,1,1,0,1
4.486,3844,1,1,0,1
4.488,3870,1,1,0,1
4.49,3871,1,1,0,1
4.492,3839,1,1,0,1
4.494,3795,1,1,0,1
4.496,3750,1,1,0,1
4.498,3721,1,1,0,1
4.5,3702,1,1,0,1
4.502,3687,1,1,0,1
4.504,3659,1,1,0,1
4.506,3602,1,1,0,1
4.508,3509,1,1,0,1
4.51,3395,1,1,0,1
4.512,3279,1,1,0,1
4.514,3179,1,1,0,1
4.516,3097,1,1,0,1
4.518,3022,1,1,0,1
4.52,2943,1,1,0,1
4.522,2850,1,1,0,1
4.524,2726,1,1,0,1
4.526,2582,1,1,0,1
4.528,2431,1,1,0,1
4.53,2299,1,1,0,1
4.532,2194,1,1,0,1
4.534,2107,1,1,0,1
4.536,2029,1,1,0,1
4.538,1946,1,1,0,1
4.54,1842,1,1,0,1
4.542,1715,1,1,0,1
4.544,1586,1,1,0,1
4.546,1469,1,1,0,1
4.548,1382,1,1,0,1
4.55,1323,1,1,0,1
4.552,1279,1,1,0,1
4.554,1235,1,1,0,1
4.556,1175,1,1,0,1
4.558,1097,1,1,0,1
4.56,1009,1,1,0,1
4.562,932,1,1,0,1
4.564,881,1,1,0,1
4.566,859,1,1,0,1
4.568,856,1,1,0,1
4.57,856,1,1,0,1
4.572,845,1,1,0,1
4.574,813,1,1,0,1
4.576,769,1,1,0,1
4.578,729,1,1,0,1
4.58,709,1,1,0,1
4.582,717,1,1,0,1
4.584,746,1,1,0,1
4.586,781,1,1,0,1
4.588,803,1,1,0,1
4.59,805,1,1,0,1
4.592,784,1,1,0,1
4.594,756,1,1,0,1
4.596,738,1,1,0,1
4.598,747,1,1,0,1
4.6,779,1,1,0,1
4.602,821,1,1,0,1
4.604,858,1,1,0,1
4.606,877,1,1,0,1
4.608,875,1,1,0,1
4.61,858,1,1,0,1
4.612,848,1,1,0,1
4.614,859,1,1,0,1
4.616,895,1,1,0,1
4.618,947,1,1,0,1
4.62,997,1,1,0,1
4.622,1034,1,1,0,1
4.624,1048,1,1,0,1
4.626,1042,1,1,0,1
4.628,1036,1,1,0,1
4.63,1046,1,1,0,1
4.632,1082,1,1,0,1
4.634,1137,1,1,0,1
4.636,1196,1,1,0,1
4.638,1244,1,1,0,1
4.64,1272,1,1,0,1
4.642,1277,1,1,0,1
4.644,1273,1,1,0,1
4.646,1283,1,1,0,1
4.648,1317,1,1,0,1
4.65,1372,1,1,0,1
4.652,1439,1,1,0,1
4.654,1495,1,1,0,1
4.656,1527,1,1,0,1
4.658,1538,1,1,0,1
4.66,1531,1,1,0,1
4.662,1532,1,1,0,1
4.664,1552,1,1,0,1
4.666,1592,1,1,0,1
4.668,1647,1,1,0,1
4.67,1698,1,1,0,1
4.672,1725,1,1,0,1
4.674,1725,1,1,0,1
4.676,1706,1,1,0,1
4.678,1682,1,1,0,1
4.68,1673,1,1,0,1
4.682,1688,1,1,0,1
4.684,1722,1,1,0,1
4.686,1762,1,1,0,1
4.688,1794,1,1,0,1
4.69,1811,1,1,0,1
4.692,1811,1,1,0,1
4.694,1804,1,1,0,1
4.696,1806,1,1,0,1
4.698,1831,1,1,0,1
4.7,1873,1,1,0,1
4.702,1915,1,1,0,1
4.704,1947,1,1,0,1
4.706,1950,1,1,0,1
4.708,1924,1,1,0,1
4.71,1877,1,1,0,1
4.712,1834,1,1,0,1
4.714,1810,1,1,0,1
4.716,1806,1,1,0,1
4.718,1809,1,1,0,1
4.72,1801,1,1,0,1
4.722,1767,1,1,0,1
4.724,1706,1,1,0,1
4.726,1623,1,1,0,1
4.728,1535,1,1,0,1
4.73,1463,1,1,0,1
4.732,1415,1,1,0,1
4.734,1389,1,1,0,1
4.736,1377,1,1,0,1
4.738,1358,1,1,0,1
4.74,1326,1,1,0,1
4.742,1282,1,1,0,1
4.744,1231,1,1,0,1
4.746,1199,1,1,0,1
4.748,1197,1,1,0,1
4.75,1222,1,1,0,1
4.752,1260,1,1,0,1
4.754,1296,1,1,0,1
4.756,1316,1,1,0,1
4.758,1315,1,1,0,1
4.76,1303,1,1,0,1
4.762,1298,1,1,0,1
4.764,1311,1,1,0,1
4.766,1343,1,1,0,1
4.768,1388,1,1,0,1
4.77,1431,1,1,0,1
4.772,1461,1,1,0,1
4.774,1468,1,1,0,1
4.776,1460,1,1,0,1
4.778,1451,1,1,0,1
4.78,1459,1,1,0,1
4.782,1486,1,1,0,1
4.784,1518,1,1,0,1
4.786,1545,1,1,0,1
4.788,1545,1,1,0,1
4.79,1519,1,1,0,1
4.792,1486,1,1,0,1
4.794,1468,1,1,0,1
4.796,1497,1,1,0,1
4.798,1593,1,1,0,1
4.8,1762,1,1,0,1
4.802,2004,1,1,0,1
4.804,2308,1,1,0,1
4.806,2650,1,1,0,1
4.808,3011,1,1,0,1
4.81,3373,1,1,0,1
4.812,3705,1,1,0,1
4.814,3955,1,1,0,1
4.816,4055,1,1,0,1
4.818,4061,1,1,0,1
4.82,4022,1,1,0,1
4.822,3861,1,1,0,1
4.824,3579,1,1,0,1
4.826,3190,1,1,0,1
4.828,2687,1,1,0,1
4.83,2078,1,1,0,1
4.832,1382,1,1,0,1
4.834,657,1,1,0,1
4.836,69,1,1,0,1
4.838,2,1,1,0,1
4.84,0,1,1,0,1
4.842,0,1,1,0,1
4.844,0,1,1,0,1
4.846,0,1,1,0,1
4.848,0,1,1,0,1
4.85,0,1,1,0,1
4.852,0,1,1,0,1
4.854,0,1,1,0,1
4.856,0,1,1,0,1
4.858,0,1,1,0,1
4.86,0,1,1,0,1
4.862,0,1,1,0,1
4.864,0,1,1,0,1
4.866,0,1,1,0,1
4.868,0,1,1,0,1
4.87,0,1,1,0,1
4.872,47,1,1,0,1
4.874,179,1,1,0,1
4.876,358,1,1,0,1
4.878,572,1,1,0,1
4.88,819,1,1,0,1
4.882,1095,1,1,0,1
4.884,1385,1,1,0,1
4.886,1673,1,1,0,1
4.888,1935,1,1,0,1
4.89,2158,1,1,0,1
4.892,2335,1,1,0,1
4.894,2477,1,1,0,1
4.896,2605,1,1,0,1
4.898,2731,1,1,0,1
4.9,2863,1,1,0,1
4.902,2986,1,1,0,1
4.904,3083,1,1,0,1
4.906,3142,1,1,0,1
4.908,3163,1,1,0,1
4.91,3159,1,1,0,1
4.912,3149,1,1,0,1
4.914,3149,1,1,0,1
4.916,3161,1,1,0,1
4.918,3181,1,1,0,1
4.92,3197,1,1,0,1
4.922,3194,1,1,0,1
4.924,3167,1,1,0,1
4.926,3125,1,1,0,1
4.928,3082,1,1,0,1
4.93,3050,1,1,0,1
4.932,3042,1,1,0,1
4.934,3046,1,1,0,1
4.936,3057,1,1,0,1
4.938,3059,1,1,0,1
4.94,3039,1,1,0,1
4.942,2999,1,1,0,1
4.944,2950,1,1,0,1
4.946,2911,1,1,0,1
4.948,2898,1,1,0,1
4.95,2907,1,1,0,1
4.952,2930,1,1,0,1
4.954,2947,1,1,0,1
4.956,2943,1,1,0,1
4.958,2922,1,1,0,1
4.96,2891,1,1,0,1
4.962,2867,1,1,0,1
4.964,2863,1,1,0,1
4.966,2877,1,1,0,1
4.968,2905,1,1,0,1
4.97,2927,1,1,0,1
4.972,2935,1,1,0,1
4.974,2927,1,1,0,1
4.976,2906,1,1,0,1
4.978,2883,1,1,0,1
4.98,2876,1,1,0,1
4.982,2894,1,1,0,1
4.984,2930,1,1,0,1
4.986,2973,1,1,0,1
4.988,3011,1,1,0,1
4.99,3027,1,1,0,1
4.992,3025,1,1,0,1
4.994,3018,1,1,0,1
4.996,3026,1,1,0,1
4.998,3059,1,1,0,1
5,3118,1,1,0,1
5.002,3187,1,1,0,1
5.004,3253,1,1,0,1
5.006,3300,1,1,0,1
5.008,3322,1,1,0,1
5.01,3327,1,1,0,1
5.012,3343,1,1,0,1
5.014,3378,1,1,0,1
5.016,3435,1,1,0,1
5.018,3506,1,1,0,1
5.02,3573,1,1,0,1
5.022,3625,1,1,0,1
5.024,3643,1,1,0,1
5.026,3639,1,1,0,1
5.028,3634,1,1,0,1
5.03,3639,1,1,0,1
5.032,3666,1,1,0,1
5.034,3707,1,1,0,1
5.036,3754,1,1,0,1
5.038,3781,1,1,0,1
5.04,3773,1,1,0,1
5.042,3739,1,1,0,1
5.044,3689,1,1,0,1
5.046,3645,1,1,0,1
5.048,3615,1,1,0,1
5.05,3601,1,1,0,1
5.052,3581,1,1,0,1
5.054,3555,1,1,0,1
5.056,3501,1,1,0,1
5.058,3418,1,1,0,1
5.06,3313,1,1,0,1
5.062,3210,1,1,0,1
5.064,3122,1,1,0,1
5.066,3049,1,1,0,1
5.068,2988,1,1,0,1
5.07,2918,1,1,0,1
5.072,2826,1,1,0,1
5.074,2706,1,1,0,1
5.076,2567,1,1,0,1
5.078,2425,1,1,0,1
5.08,2303,1,1,0,1
5.082,2206,1,1,0,1
5.084,2126,1,1,0,1
5.086,2057,1,1,0,1
5.088,1973,1,1,0,1
5.09,1874,1,1,0,1
5.092,1757,1,1,0,1
5.094,1637,1,1,0,1
5.096,1529,1,1,0,1
5.098,1450,1,1,0,1
5.1,1391,1,1,0,1
5.102,1349,1,1,0,1
5.104,1306,1,1,0,1
5.106,1250,1,1,0,1
5.108,1173,1,1,0,1
5.11,1086,1,1,0,1
5.112,1011,1,1,0,1
5.114,964,1,1,0,1
5.116,941,1,1,0,1
5.118,933,1,1,0,1
5.12,924,1,1,0,1
5.122,899,1,1,0,1
5.124,855,1,1,0,1
5.126,801,1,1,0,1
5.128,750,1,1,0,1
5.13,719,1,1,0,1
5.132,716,1,1,0,1
5.134,739,1,1,0,1
5.136,771,1,1,0,1
5.138,794,1,1,0,1
5.14,798,1,1,0,1
5.142,784,1,1,0,1
5.144,763,1,1,0,1
5.146,755,1,1,0,1
5.148,770,1,1,0,1
5.15,807,1,1,0,1
5.152,851,1,1,0,1
5.154,884,1,1,0,1
5.156,898,1,1,0,1
5.158,887,1,1,0,1
5.16,866,1,1,0,1
5.162,852,1,1,0,1
5.164,859,1,1,0,1
5.166,890,1,1,0,1
5.168,935,1,1,0,1
5.17,977,1,1,0,1
5.172,1005,1,1,0,1
5.174,1014,1,1,0,1
5.176,1003,1,1,0,1
5.178,990,1,1,0,1
5.18,995,1,1,0,1
5.182,1026,1,1,0,1
5.184,1076,1,1,0,1
5.186,1133,1,1,0,1
5.188,1177,1,1,0,1
5.19,1196,1,1,0,1
5.192,1198,1,1,0,1
5.194,1195,1,1,0,1
5.196,1213,1,1,0,1
5.198,1255,1,1,0,1
5.2,1315,1,1,0,1
5.202,1377,1,1,0,1
5.204,1427,1,1,0,1
5.206,1454,1,1,0,1
5.208,1455,1,1,0,1
5.21,1442,1,1,0,1
5.212,1433,1,1,0,1
5.214,1446,1,1,0,1
5.216,1486,1,1,0,1
5.218,1541,1,1,0,1
5.22,1585,1,1,0,1
5.222,1606,1,1,0,1
5.224,1603,1,1,0,1
5.226,1577,1,1,0,1
5.228,1542,1,1,0,1
5.23,1521,1,1,0,1
5.232,1526,1,1,0,1
5.234,1553,1,1,0,1
5.236,1585,1,1,0,1
5.238,1611,1,1,0,1
5.24,1619,1,1,0,1
5.242,1609,1,1,0,1
5.244,1598,1,1,0,1
5.246,1607,1,1,0,1
5.248,1635,1,1,0,1
5.25,1681,1,1,0,1
5.252,1737,1,1,0,1
5.254,1778,1,1,0,1
5.256,1795,1,1,0,1
5.258,1778,1,1,0,1
5.26,1742,1,1,0,1
5.262,1707,1,1,0,1
5.264,1689,1,1,0,1
5.266,1690,1,1,0,1
5.268,1701,1,1,0,1
5.27,1706,1,1,0,1
5.272,1689,1,1,0,1
5.274,1645,1,1,0,1
5.276,1583,1,1,0,1
5.278,1523,1,1,0,1
5.28,1482,1,1,0,1
5.282,1462,1,1,0,1
5.284,1460,1,1,0,1
5.286,1463,1,1,0,1
5.288,1457,1,1,0,1
5.29,1431,1,1,0,1
5.292,1383,1,1,0,1
5.294,1331,1,1,0,1
5.296,1295,1,1,0,1
5.298,1286,1,1,0,1
5.3,1304,1,1,0,1
5.302,1334,1,1,0,1
5.304,1354,1,1,0,1
5.306,1356,1,1,0,1
5.308,1337,1,1,0,1
5.31,1307,1,1,0,1
5.312,1283,1,1,0,1
5.314,1283,1,1,0,1
5.316,1307,1,1,0,1
5.318,1353,1,1,0,1
5.32,1398,1,1,0,1
5.322,1425,1,1,0,1
5.324,1425,1,1,0,1
5.326,1407,1,1,0,1
5.328,1394,1,1,0,1
5.33,1399,1,1,0,1
5.332,1431,1,1,0,1
5.334,1476,1,1,0,1
5.336,1521,1,1,0,1
5.338,1547,1,1,0,1
5.34,1544,1,1,0,1
5.342,1516,1,1,0,1
5.344,1491,1,1,0,1
5.346,1499,1,1,0,1
5.348,1558,1,1,0,1
5.35,1673,1,1,0,1
5.352,1835,1,1,0,1
5.354,2041,1,1,0,1
5.356,2281,1,1,0,1
5.358,2540,1,1,0,1
5.36,2821,1,1,0,1
5.362,3108,1,1,0,1
5.364,3357,1,1,0,1
5.366,3517,1,1,0,1
5.368,3583,1,1,0,1
5.37,3565,1,1,0,1
5.372,3447,1,1,0,1
5.374,3227,1,1,0,1
5.376,2911,1,1,0,1
5.378,2516,1,1,0,1
5.38,2042,1,1,0,1
5.382,1495,1,1,0,1
5.384,900,1,1,0,1
5.386,281,1,1,0,1
5.388,15,1,1,0,1
5.39,0,1,1,0,1
5.392,0,1,1,0,1
5.394,0,1,1,0,1
5.396,0,1,1,0,1
5.398,0,1,1,0,1
5.4,0,1,1,0,1
5.402,0,1,1,0,1
5.404,0,1,1,0,1
5.406,0,1,1,0,1
5.408,0,1,1,0,1
5.41,0,1,1,0,1
5.412,0,1,1,0,1
5.414,0,1,1,0,1
5.416,0,1,1,0,1
5.418,0,1,1,0,1
5.42,0,1,1,0,1
5.422,27,1,1,0,1
5.424,120,1,1,0,1
5.426,262,1,1,0,1
5.428,447,1,1,0,1
5.43,677,1,1,0,1
5.432,945,1,1,0,1
5.434,1228,1,1,0,1
5.436,1505,1,1,0,1
5.438,1756,1,1,0,1
5.44,1966,1,1,0,1
5.442,2134,1,1,0,1
5.444,2274,1,1,0,1
5.446,2406,1,1,0,1
5.448,2541,1,1,0,1
5.45,2681,1,1,0,1
5.452,2812,1,1,0,1
5.454,2921,1,1,0,1
5.456,2991,1,1,0,1
5.458,3023,1,1,0,1
5.46,3029,1,1,0,1
5.462,3027,1,1,0,1
5.464,3034,1,1,0,1
5.466,3054,1,1,0,1
5.468,3079,1,1,0,1
5.47,3095,1,1,0,1
5.472,3093,1,1,0,1
5.474,3063,1,1,0,1
5.476,3018,1,1,0,1
5.478,2965,1,1,0,1
5.48,2927,1,1,0,1
5.482,2918,1,1,0,1
5.484,2925,1,1,0,1
5.486,2941,1,1,0,1
5.488,2947,1,1,0,1
5.49,2930,1,1,0,1
5.492,2898,1,1,0,1
5.494,2863,1,1,0,1
5.496,2845,1,1,0,1
5.498,2845,1,1,0,1
5.5,2862,1,1,0,1
5.502,2885,1,1,0,1
5.504,2895,1,1,0,1
5.506,2883,1,1,0,1
5.508,2851,1,1,0,1
5.51,2807,1,1,0,1
5.512,2773,1,1,0,1
5.514,2762,1,1,0,1
5.516,2775,1,1,0,1
5.518,2807,1,1,0,1
5.52,2843,1,1,0,1
5.522,2859,1,1,0,1
5.524,2855,1,1,0,1
5.526,2839,1,1,0,1
5.528,2828,1,1,0,1
5.53,2835,1,1,0,1
5.532,2867,1,1,0,1
5.534,2917,1,1,0,1
5.536,2971,1,1,0,1
5.538,3012,1,1,0,1
5.54,3027,1,1,0,1
5.542,3021,1,1,0,1
5.544,3006,1,1,0,1
5.546,3005,1,1,0,1
5.548,3023,1,1,0,1
5.55,3059,1,1,0,1
5.552,3109,1,1,0,1
5.554,3150,1,1,0,1
5.556,3181,1,1,0,1
5.558,3193,1,1,0,1
5.56,3196,1,1,0,1
5.562,3205,1,1,0,1
5.564,3223,1,1,0,1
5.566,3263,1,1,0,1
5.568,3311,1,1,0,1
5.57,3353,1,1,0,1
5.572,3367,1,1,0,1
5.574,3354,1,1,0,1
5.576,3321,1,1,0,1
5.578,3290,1,1,0,1
5.58,3286,1,1,0,1
5.582,3315,1,1,0,1
5.584,3370,1,1,0,1
5.586,3433,1,1,0,1
5.588,3482,1,1,0,1
5.59,3503,1,1,0,1
5.592,3500,1,1,0,1
5.594,3481,1,1,0,1
5.596,3466,1,1,0,1
5.598,3465,1,1,0,1
5.6,3476,1,1,0,1
5.602,3491,1,1,0,1
5.604,3490,1,1,0,1
5.606,3454,1,1,0,1
5.608,3386,1,1,0,1
5.61,3299,1,1,0,1
5.612,3214,1,1,0,1
5.614,3146,1,1,0,1
5.616,3090,1,1,0,1
5.618,3029,1,1,0,1
5.62,2943,1,1,0,1
5.622,2815,1,1,0,1
5.624,2642,1,1,0,1
5.626,2438,1,1,0,1
5.628,2242,1,1,0,1
5.63,2087,1,1,0,1
5.632,1975,1,1,0,1
5.634,1898,1,1,0,1
5.636,1835,1,1,0,1
5.638,1772,1,1,0,1
5.64,1702,1,1,0,1
5.642,1617,1,1,0,1
5.644,1522,1,1,0,1
5.646,1436,1,1,0,1
5.648,1375,1,1,0,1
5.65,1339,1,1,0,1
5.652,1318,1,1,0,1
5.654,1296,1,1,0,1
5.656,1252,1,1,0,1
5.658,1185,1,1,0,1
5.66,1105,1,1,0,1
5.662,1029,1,1,0,1
5.664,977,1,1,0,1
5.666,954,1,1,0,1
5.668,949,1,1,0,1
5.67,947,1,1,0,1
5.672,934,1,1,0,1
5.674,902,1,1,0,1
5.676,854,1,1,0,1
5.678,812,1,1,0,1
5.68,788,1,1,0,1
5.682,786,1,1,0,1
5.684,801,1,1,0,1
5.686,817,1,1,0,1
5.688,820,1,1,0,1
5.69,805,1,1,0,1
5.692,773,1,1,0,1
5.694,732,1,1,0,1
5.696,704,1,1,0,1
