=~=~=~=~=~=~=~=~=~=~=~= PuTTY log 2025.01.09 23:05:23 =~=~=~=~=~=~=~=~=~=~=~=
Hello World
Hello World
Hello World
Hello World
Successfully ran Hello World application2135
2241
2163
1941
1789
1804
2011
2238
2350
2226
1996
1848
1877
2047
2219
2283
2151
1982
1898
1970
2122
2243
2219
2058
1940
1954
2110
2261
2317
2169
2226
2039
1893
1898
2076
2296
2424
2362
2149
1991
1967
2097
2250
2318
2166
1933
1804
1838
1997
2134
2157
2002
1846
1808
1934
2122
2245
2182
1963
1803
1847
1758
1833
2018
2157
2151
1946
1740
1678
1815
2028
2167
2125
1930
1779
1754
1877
2019
2097
1995
1812
1703
1734
1884
2019
2041
1903
1802
1871
2162
2255
2194
2150
2021
1692
1267
986
974
1197
1448
1563
1438
1285
1259
1402
1597
1731
1699
1549
1486
1575
1825
2084
2239
2153
1959
1844
1897
2095
2278
2243
2405
2393
2236
2131
2159
2323
2468
2530
2402
2202
2113
2199
2402
2551
2549
2340
2115
2015
2099
2269
2404
2375
2213
2098
2107
2271
2449
2535
2415
2485
2251
2018
1932
2047
2239
2369
2310
2109
1983
2011
2193
2375
2451
2309
2105
2025
2125
2340
2506
2513
2315
2120
2067
2202
2395
2508
2426
2199
2044
2025
1910
1980
2171
2327
2338
2157
1997
1976
2115
2277
2353
2252
2027
1882
1891
2052
2219
2287
2145
1929
1823
1882
2060
2195
2195
1998
1801
1731
1831
1821
1997
2162
2214
2057
1833
1721
1786
1965
2103
2109
1935
1766
1721
1849
2036
2162
2094
1882
1733
1747
1935
2125
2198
2042
1818
1721
1810
2015
2175
2003
2118
2062
1869
1739
1755
1929
2110
2186
2042
1829
1715
1773
1950
2098
2114
1938
1767
1721
1845
2030
2160
2111
1919
1789
1801
1970
2146
2219
2081
2198
2008
1828
1782
1915
2109
2231
2161
1944
1799
1811
1985
2162
2230
2077
1851
1741
1821
2030
2207
2222
2028
1834
1781
1909
2099
2217
2143
1934
1798
1910
1833
1914
2097
2229
2217
2025
1855
1823
1966
2161
2279
2209
1997
1853
1865
2041
2227
2311
2182
1983
1895
1975
2166
2323
2333
2141
1955
1901
2026
1887
2089
2285
2365
2227
2009
1887
1931
2095
2231
2236
2061
1895
1854
1982
2163
2279
2204
1991
1849
1855
2017
2181
2242
2100
1898
1808
1882
2066
2221
2119
2220
2143
1935
1791
1797
1954
2124
2209
2090
1901
1809
1866
2025
2143
2133
1955
1802
1781
1927
2124
2263
2227
2078
2025
2157
2469
2799
3021
2955
2084
1659
1245
1027
1093
1309
1524
1567
1453
1380
1441
1648
1848
1942
1819
1631
1554
1662
1903
2131
2219
2100
1962
1933
2060
2229
2330
2250
2038
1884
2057
1975
2035
2190
2314
2299
2099
1914
1866
1991
2165
2269
2189
1977
1842
1867
2056
2246
2330
2198
2001
1906
1974
2150
2290
2287
2103
1937
1897
2026
1893
2057
2213
2260
2109
1919
1849
1941
2131
2277
2273
2075
1887
1843
1989
2195
2331
2267
2066
1930
1946
2115
2282
2347
2201
1995
1895
1958
2124
2263
2259
2363
2289
2097
1978
2001
2159
2315
2372
2225
2026
1934
2005
2178
2306
2285
2082
1897
1843
1958
2121
2219
2126
1907
1762
1765
1917
2068
2117
1961
2031
1841
1671
1634
1767
1953
2073
1996
1789
1653
1665
1827
1991
2063
1930
1743
1665
1751
1939
2083
2074
1881
1709
1673
1813
2005
2127
2058
1852
1713
1751
1655
1733
1915
2061
2055
1857
1685
1651
1779
1939
2033
1954
1757
1634
1655
1822
1987
2060
1941
1777
1715
1803
1987
2137
2149
1982
1829
1798
1934
1900
2068
2229
2291
2150
1965
1893
1986
2175
2321
2317
2133
1966
1930
2063
2239
2350
2274
2077
1950
1967
2129
2286
2347
2202
2010
1931
2017
2204
2349
2279
2389
2312
2115
1993
2014
2183
2348
2414
2278
2091
2007
2086
2265
2405
2399
2219
2064
2038
2179
2356
2458
2370
2165
2039
2061
2223
2380
2430
2280
2329
2143
1987
1964
2106
2284
2390
2307
2107
1983
2010
2181
2345
2403
2256
2063
1978
2065
2246
2383
2371
2183
2022
1994
2131
2301
2399
2303
2102
1999
2729
2758
2877
2967
2925
2715
2322
1958
1734
1666
1633
1575
1407
1212
1149
1258
1507
1738
1854
1753
1602
1561
1691
1923
2115
2153
2019
1913
1933
2106
2041
2212
2377
2439
2298
2115
2039
2129
2311
2450
2437
2246
2078
2039
2173
2349
2452
2362
2158
2034
2061
2230
2393
2450
2303
2115
2033
2116
2291
2425
2327
2427
2339
2137
2010
2033
2198
2354
2407
2259
2068
1986
2069
2246
2382
2363
2175
2018
1991
2129
2302
2409
2326
2127
2005
2031
2197
2355
2409
2258
2371
2180
2018
1989
2129
2306
2411
2323
2118
1990
2013
2175
2327
2370
2211
2013
1929
2008
2179
2302
2277
2081
1911
1875
2003
2166
2254
2151
1941
1812
1829
1751
1843
2021
2153
2129
1932
1766
1733
1867
2041
2143
2053
1853
1735
1769
1945
2107
2158
2006
1818
1741
1831
2012
2151
2135
1945
1784
1756
1895
1798
1963
2120
2169
2019
1833
1754
1843
2021
2152
2131
1941
1785
1762
1905
2084
2187
2091
1883
1761
1795
1973
2137
2194
2045
1859
1783
1878
2061
2196
2093
2193
2101
1901
1782
1815
1987
2149
2197
2039
1850
1773
1863
2042
2181
2161
1969
1810
1781
1921
2094
2193
2099
1898
1782
1817
1989
2149
2195
2041
2162
1970
1813
1790
1935
2110
2211
2114
1912
1799
1840
2017
2181
2227
2072
1883
1806
1899
2079
2216
2199
2019
1877
1864
2008
2183
2278
2180
1982
1876
1959
1881
1969
2141
2265
2233
2038
1883
1855
1985
2141
2220
2108
1903
1788
1826
1995
2150
2190
2033
1847
1779
1881
2067
2201
2175
1983
1827
1802
1941
1829
1999
2148
2178
2007
1817
1763
1908
2173
2419
2533
2501
2510
2622
2854
3019
2970
2642
2201
1857
1687
1662
1614
1474
1203
990
958
1126
1393
1617
1877
2026
1987
1855
1811
1904
2110
2283
2333
2175
1986
1910
2006
2186
2315
2284
2091
1937
1922
2073
2249
2349
2251
2055
1942
1977
2146
2298
2338
2178
2301
2111
1959
1940
2086
2259
2355
2253
2051
1935
1974
2150
2309
2350
2188
2003
1933
2031
2211
2341
2311
2119
1963
1943
2085
2255
2350
2252
2058
1950
2033
1971
2078
2263
2394
2362
2170
2019
2003
2150
2321
2410
2302
2105
1996
2042
2215
2365
2395
2228
2041
1970
2065
2237
2358
2316
2115
1958
1937
2078
1936
2101
2246
2267
2093
1898
1822
1917
2089
2205
2157
1957
1803
1786
1932
2102
2190
2076
1869
1755
1798
1970
2126
2165
2003
1822
1755
1862
2046
2181
2122
2215
2109
1906
1793
1833
2002
2153
2187
2023
1841
1774
1881
2066
2195
2159
1964
1813
1797
1943
2115
2206
2099
1899
1786
1830
2002
2153
2186
2021
2136
1942
1790
1778
1926
2098
2191
2083
1884
1777
1830
2008
2165
2201
2040
1861
1797
1899
2079
2205
2165
1973
1827
1817
1969
2138
2225
2111
1913
1807
1879
1816
1919
2097
2221
2181
1981
1833
1821
1975
2151
2242
2132
1931
1818
1865
2040
2195
2226
2060
1879
1814
1918
2098
2223
2180
1981
1833
1823
1974
1873
2053
2210
2243
2078
1899
1838
1946
2127
2255
2222
2039
1907
1910
2065
2233
2318
2207
2012
1911
1970
2148
2298
2323
2153
1964
1893
1989
2159
2279
2146
2215
2093
1893
1794
1850
2027
2177
2202
2031
1851
1791
1902
2084
2212
2170
1973
1827
1819
1969
2138
2223
2110
1913
1810
1866
2040
2180
2194
2021
2769
2731
2707
2757
2847
2831
2682
2330
1909
1595
1439
1401
1389
1336
1171
1051
1074
1277
1547
1744
1752
1607
1511
1555
1754
1978
2131
2086
1953
1897
1989
1928
2039
2222
2353
2313
2119
1978
1972
2124
2293
2378
2258
2061
1957
2012
2187
2335
2358
2185
2001
1938
2043
2219
2341
2292
2096
1954
1951
2109
2010
2188
2341
2367
2197
2017
1955
2066
2239
2360
2313
2121
1986
1988
2143
2313
2395
2275
2079
1981
2041
2221
2372
2394
2229
2062
2013
2131
2309
2429
2361
2435
2307
2104
2004
2064
2239
2385
2399
2224
2043
1985
2094
2266
2381
2319
2110
1963
1958
2106
2264
2337
2205
1995
1881
1927
2091
2226
2233
2047
2135
1933
1786
1779
1929
2091
2169
2051
1855
1753
1811
1985
2132
2150
1978
1806
1756
1874
2051
2170
2116
1919
1781
1782
1940
2110
2191
2073
1878
1783
1841
1787
1905
2085
2207
2151
1953
1810
1809
1963
2129
2207
2083
1886
1787
1849
2025
2171
2185
2006
1827
1775
1897
2081
2200
2137
1933
1789
1791
1950
1847
2028
2178
2193
2017
1845
1799
1917
2098
2219
2158
1956
1817
1820
1979
2146
2222
2095
1901
1805
1869
2047
2194
2207
2029
1859
1809
1927
2105
2223
2180
2257
2132
1937
1842
1906
2083
2227
2235
2058
1885
1838
1959
2137
2253
2191
1991
1855
1860
2019
2188
2265
2137
1941
1845
1905
2079
2221
2234
2065
2222
2028
1900
1910
2070
2231
2300
2165
1966
1877
1954
2141
2292
2302
2123
1947
1897
2021
2205
2327
2267
2073
1941
1948
2104
2260
2323
2183
1979
1881
1865
1807
1927
2109
2225
2159
1959
1828
1839
2001
2169
2241
2107
1909
1817
1891
2074
2222
2231
2053
1882
1834
1955
2130
2244
2175
1967
1823
1823
1993
2537
2863
3117
3153
2867
2487
2203
2093
2057
1970
1687
1279
1005
966
1159
1398
1553
1507
1387
1355
1473
1699
1894
1954
1829
1716
1733
1924
2163
2316
2283
2352
2217
2020
1927
1999
2179
2322
2325
2143
1975
1931
2060
2239
2357
2289
2089
1955
1964
2120
2282
2351
2219
2027
1941
2015
2197
2341
2341
2158
2294
2094
1960
1971
2134
2297
2359
2222
2025
1934
2009
2189
2332
2340
2163
1999
1962
2094
2275
2391
2325
2128
1999
2017
2181
2345
2407
2268
2076
1991
2044
2003
2131
2307
2411
2329
2124
1991
2005
2169
2331
2392
2251
2054
1964
2036
2209
2340
2327
2133
1956
1908
2028
2195
2294
2207
1994
1846
1845
1997
1837
2009
2145
2139
1950
1778
1734
1862
2038
2149
2073
1873
1745
1764
1932
2099
2165
2028
1838
1753
1831
2009
2151
2151
1971
1804
1762
1887
2061
2171
2096
2158
2017
1822
1732
1809
1989
2130
2124
1937
1770
1729
1855
2031
2141
2065
1865
1734
1749
1909
2066
2126
1987
1802
1723
1811
1995
2137
2131
1945
2097
1896
1767
1789
1959
2123
2185
2042
1853
1772
1855
2035
2178
2173
1992
1833
1799
1927
2098
2202
2120
1917
1789
1812
1979
2141
2199
2055
1862
1779
1811
1778
1911
2083
2186
2101
1898
1771
1791
1957
2118
2177
2036
1850
1770
1852
2031
2169
2159
1974
1814
1780
1912
2089
2194
2113
1915
1798
1822
1991
1906
2095
2239
2235
2053
1889
1852
1983
2159
2267
2189
1993
1878
1913
2085
2247
2308
2168
1988
1910
1993
2173
2310
2295
2103
1932
1890
2018
2193
2296
2173
2219
2066
1869
1784
1869
2054
2195
2189
2003
1843
1811
1943
2116
2217
2131
1931
1803
1823
1988
2149
2207
2062
1870
1785
1874
2058
2190
2171
1977
2602
2562
2590
2727
2918
2972
2849
2499
2094
1804
1677
1621
1534
1366
1122
991
1047
1288
1557
1737
1709
1556
1475
1546
1761
1967
2065
1961
1827
1814
1996
1966
2102
2278
2387
2303
2108
1989
2017
2185
2343
2390
2235
2041
1957
2041
2219
2353
2339
2154
1997
1970
2109
2282
2381
2287
2088
1967
2001
2173
2054
2237
2375
2359
2175
2018
1991
2127
2298
2398
2309
2116
2002
2037
2214
2375
2427
2282
2101
2029
2122
2301
2434
2415
2230
2078
2057
2199
2377
2475
2421
2471
2323
2135
2057
2142
2317
2450
2427
2233
2073
2043
2183
2354
2452
2354
2143
2014
2038
2196
2341
2378
2211
2010
1923
2003
2171
2292
2258
2055
2131
1925
1802
1830
1994
2147
2187
2023
1831
1755
1846
2027
2164
2146
1958
1800
1774
1918
2100
2207
2117
1919
1807
1846
2021
2183
2227
2071
1882
1804
1831
1807
1949
2125
2220
2119
1915
1799
1837
2010
2167
2207
2047
1858
1781
1875
2056
2189
2165
1973
1815
1789
1931
2105
2203
2105
1907
1791
1828
1997
1875
2058
2193
2167
1973
1819
1801
1946
2118
2213
2113
1912
1801
1842
2017
2175
2221
2065
1881
1819
1923
2108
2239
2209
2013
1857
1835
1978
2151
2248
2205
2243
2081
1893
1822
1918
2101
2237
2212
2020
1867
1846
1989
2159
2254
2154
1956
1846
1890
2065
2219
2257
2096
1909
1839
1939
2118
2247
2214
2018
2155
1950
1839
1886
2069
2229
2271
2111
1924
1853
1951
2134
2268
2243
2057
1907
1890
2032
2201
2294
2192
1997
1896
1955
2141
2297
2329
2156
1958
1879
1898
1866
1995
2151
2229
2113
1908
1796
1841
2015
2174
2217
2061
1878
1813
1917
2102
2233
2199
2002
1847
1829
1975
2148
2238
2129
1926
1813
1858
2029
1993
2283
2546
2669
2641
2629
2711
2867
2911
2791
2447
2015
1691
1534
1494
1446
1349
1147
1001
1011
1205
1480
1692
1716
1570
1466
1501
1700
1919
2065
2294
2329
2163
1983
1921
2028
2212
2341
2298
2101
1954
1945
2097
2267
2356
2247
2047
1944
1994
2170
2323
2350
2183
1999
1934
2035
2213
2339
2298
2106
2248
2046
1939
1987
2159
2311
2343
2181
2001
1939
2046
2230
2358
2314
2115
1965
1957
2109
2284
2380
2278
2089
1987
2037
2210
2361
2389
2223
2047
1991
2041
2028
2175
2345
2430
2315
2114
2004
2053
2224
2373
2396
2222
2035
1968
2071
2249
2374
2329
2127
1967
1946
2093
2254
2331
2205
1992
1868
1903
2069
1892
2063
2180
2124
1918
1766
1755
1909
2084
2170
2057
1854
1745
1794
1969
2119
2147
1978
1800
1740
1849
2029
2156
2116
1925
1785
1785
1938
2105
2187
2145
2174
2004
1823
1762
1870
2046
2167
2117
1918
1773
1766
1914
2078
2157
2038
1841
1739
1796
1971
2119
2141
1967
1783
1722
1831
2010
2140
2099
1906
2054
1855
1755
1811
1988
2138
2161
1989
1812
1756
1870
2051
2172
2127
1934
1797
1800
1955
2124
2206
2089
1891
1789
1847
2024
2174
2197
2023
1845
1791
1821
1819
1975
2147
2229
2107
1903
1802
1858
2034
2187
2210
2038
1864
1809
1925
2105
2227
2175
1978
1834
1830
1983
2151
2236
2119
1923
1821
1875
2047
1934
2117
2237
2183
1985
1846
1847
2007
2180
2263
2145
1954
1860
1927
2106
2253
2268
2093
1914
1862
1983
2172
2301
2253
2058
1915
1911
2067
2238
2327
2286
2295
2121
1941
1881
1990
2166
2281
2217
2003
1849
1836
1985
2151
2228
2107
1913
1815
1875
2051
2194
2206
2027
1847
1789
1907
2091
2214
2158
1955
2084
1889
1785
1841
2015
2178
2235
2133
2066
2154
2439
2793
3058
3100
2902
2627
2411
2329
2259
2116
1777
1358
1065
1010
1160
1352
1451
1370
1291
1323
1649
1710
1933
2168
2300
2211
2031
1942
2005
2178
2314
2321
2143
1972
1927
2047
2225
2343
2283
2086
1951
1961
2122
2286
2358
2228
2031
1939
2009
2189
2057
2235
2353
2290
2095
1961
1969
2132
2301
2379
2250
2057
1962
2033
2213
2356
2363
2184
2007
1957
2077
2253
2371
2311
2111
1976
1985
2149
2321
2396
2388
2402
2227
2057
2007
2130
2310
2424
2357
2156
2022
2028
2186
2347
2414
2279
2079
1982
2054
2237
2383
2388
2201
2021
1969
2089
2262
2374
2302
2097
2169
1962
1859
1915
2083
2218
2215
2026
1849
1797
1914
2085
2195
2125
1925
1790
1800
1961
2125
2191
2055
1858
1765
1837
2017
2163
2170
1994
1829
1787
1807
1822
1988
2156
2223
2086
1885
1790
1861
2037
2175
2177
1999
1832
1790
1916
2096
2210
2137
1935
1803
1814
1973
2134
2199
2062
1867
1777
1850
2026
1894
2074
2188
2118
1917
1787
1806
1969
2135
2204
2070
1878
1791
1868
2046
2188
2190
2010
1844
1803
1929
2103
2214
2139
1939
1811
1829
1992
2155
2220
2190
2190
2010
1844
1804
1931
2107
2215
2138
1934
1804
1818
1980
2146
2210
2069
1876
1790
1870
2052
2193
2193
2011
1846
1806
1935
2109
2217
2143
1948
2106
1915
1829
1905
2084
2228
2230
2047
1881
1841
1973
2153
2265
2193
1997
1873
1893
2059
2219
2284
2148
1960
1880
1964
2146
2282
2271
2083
1913
1879
1915
1934
2098
2259
2323
2186
1995
1908
1983
2157
2291
2281
2095
1929
1893
2025
2201
2301
2204
1983
1842
1851
2010
2171
2234
2097
1911
1835
1919
2099
1971
2146
2252
2173
1974
1851
1877
2043
2202
2259
2117
1926
1841
1917
2093
2246
2281
2171
2113
2211
2504
2844
3094
3102
2891
2623
2437
2380
2317
2157
1358
1441
1353
1281
1327
1521
1739
1883
1838
1682
1606
1681
1902
2122
2238
2138
1975
1909
1998
2177
2309
2287
2095
1931
1901
2037
2219
2334
2253
2054
2187
1995
1913
1998
2182
2321
2309
2122
1961
1934
2076
2254
2358
2273
2072
1947
1973
2141
2303
2365
2217
2019
1930
2010
2190
2330
2318
2129
1964
1930
1945
1981
2154
2313
2366
2220
2033
1957
2051
2233
2371
2355
2167
2009
1985
2129
2309
2413
2323
2120
1992
2013
2175
2337
2390
2237
2042
1961
2044
2221
2090
2261
2353
2252
2044
1922
1948
2109
2259
2295
2129
1923
1830
1906
2073
2197
2169
1969
1802
1767
1898
2067
2165
2070
1868
1748
1778
1943
2099
2145
2152
2136
1947
1790
1765
1903
2081
2187
2102
1907
1791
1826
1997
2153
2200
2045
1860
1784
1877
2061
2193
2167
1977
1821
1794
1929
2099
2196
2097
1892
2018
1826
1746
1836
2015
2153
2132
1942
1786
1765
1910
2089
2191
2100
1902
1787
1827
1999
2158
2207
2058
1876
1805
1895
2067
2198
2175
1989
1836
1815
1816
1850
2019
2173
2215
2060
1875
1805
1898
2075
2204
2174
1980
1825
1805
1947
2126
2227
2130
1927
1807
1839
2006
2158
2202
2047
1866
1794
1886
2065
1959
2136
2233
2133
1933
1817
1850
2020
2181
2225
2069
1885
1812
1906
2086
2221
2197
2005
1851
1833
1981
2162
2264
2171
1977
1866
1905
2072
2223
2265
2283
2257
2068
1916
1901
2047
2221
2318
2219
2018
1897
1927
2091
2238
2275
2117
1937
1868
1959
2126
2239
2194
1989
1831
1813
1958
2131
2226
2123
1922
2053
1874
1810
1911
2092
2219
2186
1993
1846
1831
1976
2153
2257
2159
1960
1847
1898
2102
2316
2439
2394
2350
2437
2684
2969
3108
2964
2604
2273
2062
951
1018
1276
1543
1678
1591
1463
1436
1569
1785
1954
1960
1810
1703
1735
1939
2173
2313
2234
2045
1939
1983
2157
2316
2355
2197
2015
1953
2057
2235
2124
2299
2391
2286
2086
1971
2013
2188
2343
2377
2211
2026
1957
2056
2231
2358
2319
2127
1982
1975
2129
2299
2388
2275
2073
1959
2005
2179
2333
2371
2390
2355
2162
2014
2007
2163
2338
2429
2324
2127
2022
2074
2251
2406
2439
2274
2095
2034
2141
2318
2443
2401
2203
2054
2039
2188
2359
2450
2343
2147
2250
2068
2001
2102
2275
2390
2335
2125
1963
1941
2078
2235
2307
2180
1968
1853
1894
2061
2203
2222
2044
1853
1782
1879
2050
2170
2125
1931
1785
1774
1758
1815
1991
2146
2175
2013
1839
1783
1894
2073
2197
2155
1963
1819
1811
1961
2130
2213
2099
1898
1788
1834
2003
2152
2181
2013
1834
1774
1881
2059
1933
2102
2189
2073
1874
1770
1822
1997
2153
2186
2023
1851
1793
1901
2082
2207
2165
1969
1821
1814
1966
2139
2227
2111
1914
1809
1865
2043
2195
2223
2238
2191
1993
1846
1838
1990
2156
2235
2115
1916
1814
1869
2046
2196
2218
2045
1868
1811
1924
2103
2223
2173
1975
1835
1835
1990
2157
2238
2118
1917
2060
1883
1827
1938
2117
2239
2191
1997
1861
1861
2017
2185
2264
2141
1941
1841
1901
2081
2231
2254
2087
1912
1862
1985
2168
2289
2232
2029
1887
1890
1897
1951
2125
2270
2293
2125
1958
1913
2035
2217
2333
2271
2067
1918
1909
2058
2221
2298
2172
1965
1849
1892
2057
2198
2215
2040
1867
1819
1939
2122
2017
2188
2268
2143
1942
1841
1901
2077
2221
2234
2057
1881
1831
1943
2111
2220
2163
1994
1909
1993
2263
2567
2799
2830
2762
2734
2759
2783
2733
2538
1382
1314
1176
1129
1227
1473
1713
1843
1756
1598
1542
1649
1870
2065
2136
2025
1913
1907
2051
2237
2356
2298
2099
1957
1958
2118
2285
2362
2238
2046
2177
2006
1959
2082
2261
2376
2310
2105
1963
1965
2125
2298
2383
2261
2069
1969
2029
2204
2349
2357
2177
2000
1948
2065
2238
2354
2291
2094
1961
1971
1949
2017
2197
2347
2366
2198
2030
1983
2107
2287
2408
2346
2147
2012
2023
2190
2362
2439
2311
2116
2019
2086
2260
2398
2402
2220
2045
1996
2116
2290
2147
2305
2366
2228
2028
1933
1997
2171
2307
2303
2116
1935
1876
1983
2151
2258
2181
1969
1823
1819
1969
2124
2185
2046
1849
1753
1819
1992
2135
2145
2173
2109
1913
1781
1790
1954
2123
2195
2067
1877
1789
1861
2037
2179
2186
2010
1843
1797
1918
2097
2212
2142
1944
1811
1825
1988
2151
2221
2085
1889
1989
1821
1778
1906
2087
2199
2130
1927
1789
1798
1961
2126
2197
2063
1871
1783
1857
2033
2173
2175
1994
1827
1784
1913
2096
2212
2145
1950
1820
1829
1783
1859
2037
2182
2183
1999
1831
1787
1913
2093
2207
2139
1941
1812
1827
1993
2161
2230
2101
1910
1819
1890
2063
2201
2197
2009
1839
1799
1928
2105
1989
2158
2229
2093
1902
1816
1891
2067
2205
2205
2027
1865
1829
1958
2133
2241
2163
1961
1834
1853
2019
2183
2247
2104
1911
1827
1903
2085
2229
2231
2265
2194
2002
1881
1902
2069
2230
2289
2145
1951
1870
1954
2139
2279
2275
2094
1933
1902
2041
2225
2342
2268
2073
1945
1956
2105
2252
2299
2149
1951
2033
1853
1804
1929
2105
2214
2138
1940
1813
1832
1999
2161
2220
2073
1875
1787
1865
2045
2186
2182
1995
1831
1795
1929
2105
2210
2122
1909
1769
1783
2239
2494
2827
3083
3125
2869
2518
2249
2149
2103
2002
1713
1303
1018
966
1143
1362
1495
1437
1328
1309
1441
1669
1858
1898
1762
1654
1683
1889
2127
2106
2267
2325
2182
1999
1925
2013
2198
2338
2327
2139
1975
1941
2071
2242
2340
2253
2054
1930
1956
2124
2284
2341
2198
2008
1930
2015
2197
2337
2326
2361
2274
2075
1949
1977
2145
2303
2355
2206
2015
1938
2027
2214
2353
2339
2153
1997
1971
2114
2293
2403
2319
2121
1999
2030
2204
2371
2427
2281
2093
2210
2047
2019
2155
2328
2427
2335
2128
1998
2021
2186
2341
2387
2234
2041
1959
2042
2215
2345
2323
2127
1957
1919
2046
2209
2299
2195
1977
1843
1863
1763
1841
2009
2137
2117
1926
1767
1739
1877
2054
2161
2076
1875
1748
1772
1935
2092
2143
1994
1806
1731
1826
2012
2150
2132
1947
1794
1772
1915
2094
1981
2141
2190
2033
1842
1762
1854
2038
2178
2156
1962
1803
1777
1922
2097
2195
2099
1898
1779
1814
1987
2146
2193
2037
1849
1774
1869
2052
2187
2169
2222
2127
1926
1806
1837
2003
2156
2200
2046
1866
1798
1894
2077
2212
2187
1993
1838
1815
1959
2133
2228
2129
1926
1809
1845
2014
2169
2211
2053
1862
1975
1823
1804
1945
2121
2220
2125
1927
1814
1851
2019
2172
2214
2057
1871
1803
1899
2081
2210
2183
1995
1847
1833
1979
2157
2254
2152
1947
1829
1863
1829
1926
2105
2237
2213
2023
1871
1853
1997
2169
2261
2158
1954
1836
1873
2042
2195
2235
2078
1894
1825
1923
2106
2239
2215
2023
1867
1846
1992
2167
2047
2202
2242
2083
1903
1839
1943
2126
2260
2233
2039
1886
1871
2022
2203
2303
2205
2003
1886
1918
2086
2231
2263
2102
1919
1854
1951
2119
2229
2180
2211
2111
1915
1805
1846
2018
2173
2211
2047
1865
1798
1898
2076
2205
2172
1978
1823
1805
1950
2123
2213
2097
1885
1769
1821
2027
2243
2373
2339
2309
2648
2293
2063
1997
1955
1819
1486
1120
934
989
1230
1470
1593
1513
1397
1378
1519
1740
1913
1923
1775
1676
1721
1931
2152
2276
2188
1995
1889
1938
1899
2010
2198
2330
2295
2103
1956
1943
2090
2258
2345
2234
2034
1926
1973
2150
2307
2343
2183
2003
1943
2046
2225
2349
2310
2117
1970
1958
2109
2279
2182
2337
2373
2211
2027
1963
2065
2242
2366
2329
2139
1997
1990
2143
2315
2404
2294
2101
2001
2059
2237
2389
2421
2257
2077
2012
2121
2301
2427
2381
2415
2295
2089
1974
2019
2191
2338
2361
2189
2003
1935
2036
2211
2330
2282
2078
1919
1897
2031
2185
2255
2133
1926
1814
1857
2021
2163
2184
2006
1818
1908
1763
1755
1905
2074
2155
2036
1836
1729
1778
1953
2105
2134
1969
1791
1735
1849
2035
2164
2123
1930
1785
1777
1925
2091
2171
2060
1862
1758
1809
1751
1859
2036
2160
2115
1919
1775
1769
1921
2087
2166
2043
1843
1740
1796
1971
2123
2154
1991
1815
1755
1866
2047
2175
2131
1937
1795
1789
1941
2110
2023
2173
2199
2029
1855
1803
1915
2095
2219
2170
1974
1835
1830
1981
2147
2227
2107
1908
1805
1859
2035
2187
2209
2036
1860
1804
1914
2089
2206
2157
2229
2106
1902
1795
1847
2023
2173
2198
2028
1855
1803
1917
2099
2221
2169
1974
1833
1832
1990
2162
2249
2135
1943
1843
1898
2078
2229
2254
2085
1908
2015
1874
1867
2021
2190
2270
2149
1951
1852
1908
2083
2227
2249
2075
1897
1843
1959
2137
2257
2205
2014
1883
1893
2055
2221
2294
2164
1961
1857
1914
1881
1999
2181
2306
2258
2067
1929
1925
2075
2235
2307
2175
1975
1871
1931
2108
2252
2258
2067
1875
1811
1919
2096
2219
2172
1980
1844
1847
2002
2167
2071
2216
2229
2057
1883
1834
1951
2130
2246
2187
1991
1859
1861
2010
2169
2247
2146
2001
1983
2153
2461
2755
2910
2852
2730
2622
2599
2611
2545
2290
1395
1337
1246
1251
1394
1630
1817
1854
1705
1564
1552
1713
1933
2097
2091
1953
1867
1909
2089
2268
2349
2225
2028
1931
1992
2171
2321
2334
2161
1991
2115
1975
1980
2143
2314
2391
2267
2075
1983
2050
2226
2372
2385
2210
2038
1992
2115
2295
2413
2351
2153
2018
2023
2182
2347
2418
2285
2087
1989
2055
2002
2130
2313
2429
2365
2166
2031
2039
2203
2370
2449
2326
2136
2046
2118
2297
2444
2454
2274
2102
2055
2178
2356
2471
2406
2202
2063
2071
2231
2394
2260
2398
2398
2213
2033
1978
2094
2261
2366
2291
2082
1937
1934
2081
2232
2287
2143
1937
1829
1885
2054
2189
2190
2006
1833
1786
1905
2081
2195
2124
2186
2054
1861
1773
1847
2030
2180
2189
2009
1842
1798
1919
2098
2213
2146
1946
1811
1822
1985
2150
2221
2089
1895
1803
1871
2045
2182
2179
1993
1821
1930
1796
1803
1962
2123
2187
2053
1862
1775
1854
2035
2182
2188
2008
1842
1803
1934
2115
2226
2153
1953
1821
1835
2001
2168
2238
2106
1913
1825
1899
1841
1966
2142
2253
2180
1976
1842
1854
2018
2185
2250
2111
1917
1826
1895
2071
2211
2210
2027
1859
1818
1945
2122
2233
2157
1957
1830
1847
2011
2174
2074
2220
2225
2044
1877
1831
1954
2129
2241
2167
1969
1837
1854
2019
2184
2248
2109
1917
1831
1910
2091
2229
2226
2043
1878
1841
1972
2153
2263
2186
2263
2127
1937
1851
1931
2111
2258
2262
2086
1926
1893
2024
2202
2311
2230
2024
1897
1918
2087
2250
2315
2178
1987
1900
1979
2165
2314
2318
2138
1970
2023
1897
1917
2078
2230
2277
2121
1913
1817
1887
2063
2201
2197
2015
1855
1817
1947
2127
2241
2164
1961
1830
1850
2018
2182
2242
2100
1909
1828
1905
1801
1925
2107
2251
2234
2130
2131
2303
2634
2937
3102
2989
2707
2446
2327
2301
2238
2027
1626
1246
1052
1114
1305
1482
1486
1371
1318
1398
1607
1806
1980
2183
2226
2073
1923
1893
2029
2207
2315
2234
2037
1913
1939
2111
2277
2339
2198
2010
1930
2010
2187
2322
2310
2120
1951
1916
2051
2227
2335
2252
2330
2185
1997
1915
1995
2173
2314
2302
2117
1953
1922
2058
2233
2338
2254
2054
1931
1958
2131
2299
2361
2220
2032
1951
2034
2218
2363
2358
2181
2025
2155
2027
2053
2223
2389
2451
2308
2121
2041
2126
2301
2431
2415
2225
2061
2027
2158
2326
2420
2327
2122
1995
2014
2173
2323
2369
2216
2018
1929
1999
1831
1954
2119
2211
2115
1907
1773
1786
1945
2100
2151
1999
1809
1727
1815
1995
2133
2124
1943
1789
1763
1899
2076
2181
2097
1897
1777
1807
1978
2139
2041
2180
2164
1975
1815
1783
1919
2098
2203
2111
1909
1783
1811
1979
2140
2194
2047
1859
1781
1869
2045
2181
2163
1971
1805
1767
1901
2075
2178
2093
2191
2042
1855
1781
1871
2052
2191
2175
1987
1826
1799
1940
2118
2222
2133
1931
1809
1839
2009
2171
2223
2077
1889
1811
1901
2085
2223
2206
2014
1851
1941
1819
1846
2015
2178
2231
2083
1897
1822
1913
2092
2226
2207
2018
1858
1827
1962
2139
2241
2151
1954
1836
1867
2037
2199
2252
2104
1915
1841
1930
1846
1981
2147
2242
2150
1954
1841
1877
2044
2202
2247
2094
1905
1828
1917
2097
2232
2213
2023
1865
1841
1977
2147
2242
2149
1951
1838
1875
2045
2202
2127
2267
2252
2064
1904
1880
2019
2191
2290
2195
1995
1875
1905
2073
2233
2282
2134
1954
1883
1978
2157
2294
2281
2101
1955
1935
2077
2246
2341
2235
2276
2122
1929
1840
1918
2086
2205
2173
1978
1823
1806
1951
2130
2230
2133
1930
1811
1849
2020
2175
2221
2069
1882
1805
1897
2078
2209
2184
1991
1833
1895
1811
1914
2194
2491
2701
2714
2665
2687
2821
2921
2867
2622
2215
1848
1624
1562
1535
1484
1318
1121
1053
1162
1417
1653
1758
1652
1513
1482
1620
1881
2043
2223
2321
2221
2021
1906
1947
2122
2284
2335
2182
1996
1925
2017
2195
2330
2303
2109
1951
1926
2067
2238
2333
2229
2023
1909
1951
2126
2282
2191
2319
2289
2096
1940
1921
2069
2246
2343
2245
2045
1930
1966
2142
2301
2347
2190
2006
1942
2043
2228
2362
2339
2151
2004
1990
2139
2317
2415
2318
2430
2269
2085
2014
2111
2289
2419
2391
2201
2043
2017
2155
2323
2413
2307
2102
1983
2020
2187
2335
2367
2201
2003
1925
2014
2187
2310
2270
2071
1906
1935
1809
1839
2003
2153
2184
2014
1823
1746
1841
2015
2141
2106
1911
1759
1745
1895
2075
2174
2073
1870
1750
1790
1967
2129
2169
2011
1831
1767
1873
1799
1946
2121
2215
2107
1906
1795
1835
2006
2159
2194
2027
1840
1769
1866
2043
2174
2143
1950
1799
1782
1923
2090
2178
2069
1865
1750
1790
1959
2113
2022
2154
2123
1930
1783
1771
1917
2090
2183
2075
1875
1765
1810
1986
2141
2178
2014
1833
1768
1870
2046
2173
2134
1937
1785
1771
1921
2094
2187
2079
2185
2023
1841
1775
1880
2062
2188
2151
1956
1806
1795
1943
2117
2210
2105
1909
1799
1843
2017
2173
2210
2043
1861
1796
1898
2081
2210
2175
1983
1832
1919
1811
1855
2026
2177
2213
2053
1872
1811
1923
2107
2238
2203
2008
1854
1837
1982
2154
2245
2136
1939
1833
1883
2056
2207
2241
2074
1886
1816
1917
1846
1995
2166
2255
2146
1950
1848
1901
2079
2234
2269
2106
1926
1860
1961
2139
2269
2237
2047
1905
1895
2045
2214
2295
2172
1967
1864
1918
2099
2253
2167
2299
2266
2074
1919
1901
2041
2203
2281
2163
1960
1850
1899
2073
2217
2231
2053
1858
1784
1886
2066
2192
2153
1963
1820
1811
1958
2127
2213
2101
2207
2042
1864
1803
1910
2089
2207
2158
1954
1798
1778
1925
2111
2243
2209
2121
2149
2355
2691
2978
3102
2947
2663
2435
2354
2331
2252
1998
1573
1204
1351
1314
1414
1623
1804
1868
1742
1610
1596
1755
1993
2180
2183
2017
1886
1883
2037
2205
2289
2175
1985
1886
1946
2129
2283
2307
2130
1947
1885
1996
1917
2073
2244
2333
2219
2021
1913
1961
2131
2279
2307
2141
1966
1911
2025
2205
2327
2278
2079
1931
1925
2077
2249
2334
2222
2028
1926
1982
2159
2309
2237
2364
2319
2126
1983
1982
2145
2322
2411
2299
2107
2003
2061
2236
2383
2404
2235
2060
2003
2117
2293
2411
2355
2155
2009
2000
2149
2312
2389
2267
2331
2154
1969
1908
2014
2184
2297
2239
2031
1877
1861
2002
2156
2223
2089
1881
1773
1823
1991
2131
2145
1967
1784
1724
1836
2013
2135
2083
1885
1743
1823
1718
1774
1950
2100
2124
1959
1790
1741
1854
2027
2141
2086
1890
1752
1754
1910
2079
2155
2027
1825
1723
1783
1963
2115
2135
1963
1789
1737
1853
1765
1918
2088
2170
2046
1851
1759
1830
2015
2171
2194
2021
1844
1784
1897
2075
2198
2147
1953
1818
1823
1980
2149
2227
2105
1909
1811
1870
2045
2194
2102
2227
2173
1973
1831
1831
1987
2153
2230
2105
1905
1801
1860
2036
2182
2199
2026
1854
1806
1923
2103
2223
2170
1973
1833
1830
1983
2150
2229
2109
2218
2043
1869
1820
1943
2127
2250
2193
1995
1859
1861
2015
2182
2258
2136
1947
1853
1913
2090
2239
2257
2082
1910
1863
1979
2157
2277
2223
2029
1893
1969
1869
1925
2101
2249
2265
2092
1918
1867
1985
2166
2291
2237
2041
1903
1902
2057
2223
2303
2184
1993
1896
1957
2129
2269
2278
2101
1930
1883
2004
1918
2081
2253
2331
2206
2009
1911
1971
2141
2281
2289
2107
1934
1889
2006
2173
2275
2201
1990
1846
1849
2009
2180
2260
2135
1944
1851
1918
2097
2241
2165
2275
2206
1999
1859
1866
2026
2199
2280
2154
1953
1849
1911
2103
2292
2375
2301
2258
2358
2633
2941
3134
3051
2727
2422
2250
2217
2187
2051
1687
1639
1545
1440
1439
1592
1797
1946
1919
1762
1671
1722
1933
2157
2286
2198
2027
1946
2018
2197
2339
2350
2173
2001
1957
2085
2267
2390
2331
2135
2003
2074
1978
2043
2223
2373
2387
2213
2040
1990
2105
2280
2399
2334
2135
2001
2013
2177
2340
2406
2269
2069
1973
2039
2221
2365
2373
2193
2019
1974
2098
2011
2177
2347
2422
2294
2102
2011
2083
2265
2410
2421
2248
2083
2041
2166
2345
2459
2393
2195
2063
2071
2227
2385
2452
2317
2121
2025
2089
2260
2397
2271
2382
2310
2105
1965
1967
2122
2274
2329
2182
1978
1877
1937
2103
2234
2232
2043
1868
1818
1937
2108
2213
2137
1934
1798
1806
1965
2132
2203
2070
2179
1998
1831
1795
1931
2117
2236
2165
1961
1825
1837
2001
2166
2234
2100
1905
1815
1890
2069
2209
2205
2019
1846
1801
1926
2104
2217
2145
1943
1813
1884
1790
1860
2036
2179
2181
2001
1835
1791
1919
2099
2213
2143
1946
1817
1831
1995
2161
2232
2101
1911
1826
1901
2081
2223
2228
2047
1883
1843
1969
1870
2029
2189
2251
2111
1918
1829
1902
2083
2225
2226
2043
1877
1833
1955
2129
2235
2157
1953
1820
1837
2007
2175
2243
2106
1913
1827
1899
2076
2215
2137
2247
2171
1973
1846
1865
2030
2194
2255
2117
1927
1844
1923
2101
2237
2233
2046
1880
1844
1976
2158
2271
2198
1998
1868
1883
2045
2207
2266
2122
2226
2043
1881
1846
1981
2163
2271
2193
1991
1859
1873
2033
2193
2255
2118
1930
1845
1925
2106
2247
2246
2070
1911
1880
2014
2190
2295
2215
2009
1875
1969
1885
1967
2151
2295
2299
2121
1956
1917
2043
2210
2309
2220
2013
1881
1896
2059
2221
2278
2124
1917
1820
1890
2067
2206
2202
2017
1851
1816
1950
1847
2014
2179
2243
2102
1905
1817
1898
2083
2229
2228
2043
1871
1820
1939
2109
2227
2189
2066
2046
2205
2532
2856
3049
2996
2814
2618
2501
2461
2387
1284
1409
1387
1268
1232
1334
1557
1759
1859
1759
1613
1576
1711
1954
2161
2213
2061
1914
1887
2029
2210
2321
2242
2039
1909
1927
2091
2253
2317
2181
2298
2109
1943
1909
2042
2220
2325
2238
2033
1909
1937
2110
2276
2335
2189
1995
1916
2001
2183
2321
2310
2125
1966
1937
2074
2249
2351
2264
2061
1931
2021
1941
2026
2210
2355
2353
2173
2014
1986
2127
2308
2415
2334
2139
2019
2047
2219
2382
2436
2283
2091
2008
2093
2271
2407
2396
2207
2041
2004
2135
1997
2157
2314
2365
2213
2015
1929
2006
2175
2300
2274
2073
1894
1846
1970
2137
2235
2143
1932
1799
1817
1980
2138
2188
2031
1837
1753
1836
2012
2146
2070
2169
2079
1875
1753
1780
1950
2111
2163
2015
1833
1758
1849
2031
2170
2155
1967
1810
1779
1916
2093
2197
2113
1913
1791
1817
1983
2143
2195
2043
2154
1961
1799
1764
1896
2065
2164
2074
1876
1761
1795
1966
2127
2185
2039
1854
1778
1867
2046
2187
2171
1980
1820
1791
1930
2105
2210
2123
1925
1812
1923
1846
1933
2115
2257
2246
2065
1910
1873
1987
2139
2227
2130
1929
1809
1838
2006
2159
2205
2047
1853
1776
1871
2066
2217
2213
2025
1861
1825
1949
1866
2066
2245
2302
2140
1919
1799
1863
2057
2243
2284
2132
1978
1930
2036
2174
2238
2129
1930
1827
1874
2051
2193
2218
2047
1854
1780
1879
2070
2218
2111
2218
2127
1919
1795
1827
1996
2143
2182
2029
1841
1761
1854
2055
2219
2226
2047
1890
1857
1983
2146
2241
2151
1960
1849
1876
2025
2162
2215
2079
2233
2024
1851
1821
1967
2150
2271
2213
2045
1945
1987
2162
2329
2385
2229
2037
1970
2078
2271
2406
2371
2163
1983
1939
2059
2213
2289
2172
1958
1837
1798
1773
1905
2105
2244
2219
2011
1839
1804
1925
2079
2173
2094
1911
1807
1851
2031
2190
2221
2029
1797
1693
1781
1972
2140
2175
2079
2069
2229
2559
2353
2311
2265
2106
1734
1313
1031
989
1130
1302
1361
1270
1206
1246
1426
1650
1810
1768
1623
1584
1715
1971
2183
2245
2092
1918
1873
1994
2187
2319
2354
2439
2298
2036
1873
1903
2099
2286
2345
2158
1917
1809
1914
2141
2315
2311
2135
1997
2011
2203
2421
2550
2461
2241
2072
2046
2167
2297
2339
2211
2215
2021
1922
1979
2185
2371
2441
2311
2103
2021
2118
2346
2513
2519
2298
2051
1931
2002
2194
2369
2391
2247
2119
2117
2276
2447
2521
2401
2173
2033
2142
2042
2125
2296
2423
2395
2213
2085
2095
2259
2419
2457
2283
2025
1884
1959
2193
2385
2413
2199
1947
1847
1959
2185
2357
2332
2097
1891
1847
1998
1916
2095
2205
2174
1938
1713
1681
1862
2130
2309
2261
2005
1782
1737
1903
2118
2243
2125
1874
1713
1734
1926
2127
2185
2003
1779
1700
1831
2061
2213
2114
2195
2076
1863
1750
1806
2004
2175
2201
1992
1751
1641
1743
1967
2132
2101
1891
1740
1733
1860
1994
2051
1925
1731
1653
1739
1937
2107
2157
2006
2076
1983
1917
1923
1987
2025
2012
1945
1859
1832
1869
1930
1946
1903
1822
1763
1749
1780
1826
1851
1827
1778
1761
1785
1854
1935
1990
1977
1929
1890
1799
1777
1821
1919
2019
2047
1971
1867
1803
1805
1847
1911
1966
2025
2064
2059
2037
2021
2004
1966
1911
1854
1836
1853
1895
1930
1951
1997
2054
2126
1869
1927
1981
2001
1957
1918
1933
2017
2121
2175
2151
2062
1988
1982
2039
2111
2157
2109
1993
1893
1866
1919
1979
2014
2001
1995
2027
2103
2173
2183
2235
2314
2239
2083
1955
1909
1933
1962
1971
1959
1969
1993
2051
2117
2147
2103
1987
1892
1866
1917
1992
2038
2017
1980
1991
2045
2118
2157
2131
2042
2206
2036
1889
1833
1880
1955
2009
1999
1966
1975
2045
2149
2222
2225
2149
2068
2011
2002
2039
2099
2148
2179
2225
2322
2502
2733
2933
3011
2973
2844
1727
1500
1332
1246
1242
1289
1364
1456
1560
1656
1707
1710
1699
1726
1788
1871
1926
1931
1902
1851
1827
1839
1876
1916
1966
2022
2062
2091
2134
2173
1282
1039
879
846
935
1090
1249
1395
1525
1645
1766
1877
1949
1977
1969
1943
1907
1861
1820
1790
1764
1762
1805
1887
1985
2081
2183
2302
2429
2534
2747
2782
2825
2855
2863
2874
2916
2975
2995
2954
2871
2755
2647
2594
2609
2662
2701
2665
2545
2399
2281
2217
2202
2245
2308
2347
2345
2323
2297
2261
1349
1298
1295
1310
1320
1323
1338
1369
1406
1443
1451
1420
1356
1311
1318
1347
1370
1381
1398
1448
1533
1622
1679
1697
1692
1689
1710
1764
1834
1887
2129
2167
2164
2156
2188
2253
2309
2327
2325
2311
2303
2326
2378
2437
2459
2437
2383
2345
2353
2406
2471
2521
2534
2507
2457
2408
2371
2337
2299
2263
2078
2001
1953
1950
1975
2002
2001
1967
1927
1911
1919
1923
1898
1841
1759
1707
1708
1761
1831
1876
1887
1884
1902
1956
2033
2105
2129
2100
2047
2025
2165
2201
2265
2322
2329
2296
2254
2234
2259
2318
2373
2397
2389
2371
2375
2412
2466
2501
2503
2483
2463
2468
2499
2532
2538
2506
2462
2445
2471
2527
2509
2478
2459
2454
2451
2458
2489
2539
2588
2586
2525
2435
2347
2293
2275
2260
2231
2183
2149
2167
2236
2329
2399
2409
2353
2278
2242
2235
2225
2167
2150
2205
2207
2167
2123
2103
2097
2059
1986
1914
1864
1849
1861
1871
1864
1847
1840
1875
1958
2057
2119
2114
2053
1969
1898
1867
1878
1907
1932
1958
2251
2215
2183
2183
2219
2267
2309
2349
2411
2538
2713
2886
3038
3149
3191
3160
3043
2878
2701
2507
2280
2018
1748
1523
1397
1372
1413
1475
1531
1573
1823
1862
1917
1965
1995
2020
2042
2075
2124
2185
2230
2223
2163
2097
2062
2062
2077
2070
2036
1999
1999
2046
2107
2133
2089
1994
1903
1868
1895
1966
2002
2025
2034
2003
1949
1908
1901
1941
2007
2042
2023
1975
1942
1950
1994
2030
2033
2017
2005
2019
2067
2135
2184
2191
2165
2136
2137
2159
2185
2182
2179
2205
2197
2185
2197
2239
2302
2353
2364
2333
2293
2271
2271
2278
2268
2235
2184
2149
2147
2175
2199
2194
2155
2107
2079
2091
2122
2138
2122
2076
1983
1943
1923
1935
1978
2019
2014
1963
1904
1873
1883
1922
1941
1923
1887
1861
1854
1875
1913
1927
1903
1847
1796
1776
1789
1818
1839
1855
1873
1902
1799
1816
1879
1961
2020
2031
2004
1970
1953
1950
1937
1895
1839
1799
1807
1862
1934
1987
2004
1993
1974
1979
2007
2027
2009
1956
1895
1863
1887
1951
1922
1983
2032
2023
1954
1875
1827
1826
1866
1909
1928
1919
1915
1929
1961
2007
2033
2018
1973
1942
1938
1957
1966
1945
1911
1893
1905
1936
1963
1957
2057
2056
2005
1946
1915
1926
1955
1975
1971
1955
1965
2021
2093
2127
2104
2030
1941
1880
1877
1916
1951
1967
1971
1977
2013
2083
2145
2153
2095
2008
2018
2023
2036
2063
2087
2086
2061
2014
1964
1941
1962
2014
2058
2065
2054
2059
2099
2167
2225
2231
2174
2077
2002
1989
2027
2078
2092
2063
2022
2026
2005
1961
1967
1995
2022
2023
1999
1970
1961
1978
1994
1979
1931
1886
1883
1925
1990
2041
2054
2027
1991
1968
1985
2027
2055
2042
2005
1968
1956
1961
1849
1958
2104
2257
2407
2563
2718
2866
2942
2867
2653
2390
2145
1942
1782
1603
1399
1231
1157
1180
1264
1379
1476
1517
1519
1518
1553
1625
1713
1791
2129
2139
2109
2077
2069
2097
2151
2201
2209
2183
2147
2118
2106
2104
2095
2084
2081
2097
2146
2215
2261
2247
2177
2079
2002
1983
2015
2057
2075
2072
2136
2094
2073
2103
2165
2216
2213
2157
2094
2073
2100
2155
2201
2199
2167
2137
2136
2157
2171
2151
2095
2035
2011
2053
2143
2239
2285
2257
2198
2149
2179
2162
2172
2195
2201
2185
2163
2156
2182
2234
2283
2281
2222
2146
2095
2093
2126
2158
2163
2143
2123
2122
2149
2183
2197
2193
2169
2130
2096
2078
1954
1991
2014
2013
1997
1979
1981
2004
2023
2019
1986
1945
1927
1953
2011
2061
2065
2011
1947
1917
1934
1977
2008
2003
1967
1926
1906
1911
1932
1947
2042
2026
1986
1960
1977
2017
2050
2045
1997
1937
1906
1930
1986
2057
2099
2090
2033
1978
1963
1979
1985
1966
1924
1885
1883
1926
1986
2026
2028
1999
2031
1994
1963
1959
1993
2038
2073
2070
2029
1996
1990
1994
1983
1959
1928
1912
1923
1963
2010
2026
2003
1963
1938
1946
1990
2043
2085
2101
2083
2055
1980
2008
2066
2105
2092
2027
1951
1911
1933
1989
2035
2059
2061
2063
2078
2101
2122
2098
2025
1939
1885
1889
1946
2011
2042
2037
2015
2011
2025
2044
1990
2041
2081
2085
2057
2019
2013
2042
2079
2090
2061
2021
2003
2026
2076
2125
2143
2120
2076
2058
2070
2103
2129
2115
2077
2046
2047
2084
2131
2153
2118
2123
2106
2084
2087
2110
2151
2186
2188
2156
2115
2087
2072
2067
2041
2005
1982
1991
2022
2051
2050
2008
1958
1924
1944
2006
2071
2101
2087
2046
2013
1964
1939
1953
2003
2055
2069
2026
1951
1890
1876
1913
1979
2051
2134
2268
2479
2733
2951
3083
3062
2886
2632
2393
2191
2007
1811
1572
1345
1211
1518
1551
1599
1661
1715
1745
1764
1810
1899
2011
2099
2135
2118
2093
2111
2171
2236
2258
2221
2158
2110
2097
2116
2153
2180
2182
2163
2152
2175
2223
2133
2167
2185
2164
2117
2081
2082
2118
2164
2198
2206
2188
2166
2165
2187
2213
2214
2184
