FIR_BP_sample,Moving_Averaged_sample,Deriv_sample,peak,sample_number
1726,1589,-77,0,0
1769,1588,-99,0,1
1796,1588,-120,0,2
1806,1589,-139,0,3
1803,1593,-156,0,4
1791,1597,-169,0,5
1773,1602,-179,0,6
1754,1606,-186,0,7
1737,1608,-190,0,8
1725,1606,-193,0,9
1718,1598,-196,0,10
1716,1582,-199,0,11
1717,1558,-203,0,12
1720,1525,-210,0,13
1723,1485,-220,0,14
1725,1437,-234,0,15
1726,1384,-251,0,16
1726,1328,-272,0,17
1725,1273,-295,0,18
1724,1220,-321,0,19
1724,1173,-348,0,20
1724,1133,-376,0,21
1726,1102,-404,0,22
1729,1081,-430,0,23
1732,1068,-455,0,24
1735,1062,-477,0,25
1737,1060,-497,0,26
1737,1060,-515,0,27
1736,1059,-529,0,28
1733,1055,-541,0,29
1730,1044,-549,0,30
1727,1026,-554,0,31
1724,998,-555,0,32
1722,959,-553,0,33
1722,911,-546,0,34
1723,855,-536,0,35
1726,792,-522,0,36
1730,724,-505,0,37
1735,653,-485,0,38
1741,582,-464,0,39
1746,514,-442,0,40
1750,451,-421,0,41
1753,396,-401,0,42
1754,347,-384,0,43
1753,307,-370,0,44
1750,275,-359,0,45
1746,251,-352,0,46
1741,234,-349,0,47
1736,224,-348,0,48
1732,219,-350,0,49
1730,217,-352,0,50
1730,217,-353,0,51
1732,219,-353,0,52
1736,222,-350,0,53
1742,224,-344,0,54
1748,225,-335,0,55
1754,225,-321,0,56
1758,224,-304,0,57
1761,222,-283,0,58
1762,218,-260,0,59
1762,215,-234,0,60
1761,210,-208,0,61
1760,206,-181,0,62
1761,202,-155,0,63
1763,197,-132,0,64
1766,192,-111,0,65
1772,187,-93,0,66
1779,182,-78,0,67
1787,178,-67,0,68
1794,174,-58,0,69
1801,170,-53,0,70
1807,166,-50,0,71
1811,162,-49,0,72
1813,157,-49,0,73
1813,153,-49,0,74
1811,148,-51,0,75
1808,144,-52,0,76
1805,140,-53,0,77
1802,135,-53,0,78
1800,131,-53,0,79
1799,127,-52,0,80
1800,123,-51,0,81
1802,119,-49,0,82
1804,115,-47,0,83
1807,112,-45,0,84
1810,109,-43,0,85
1812,106,-41,0,86
1812,103,-39,0,87
1812,100,-37,0,88
1811,98,-35,0,89
1810,96,-34,0,90
1810,95,-32,0,91
1810,93,-31,0,92
1811,93,-30,0,93
1812,93,-29,0,94
1814,94,-28,0,95
1815,94,-26,0,96
1815,95,-25,0,97
1812,96,-24,0,98
1807,97,-23,0,99
1800,98,-22,0,100
1791,99,-21,0,101
1782,100,-20,0,102
1774,100,-19,0,103
1766,100,-18,0,104
1760,100,-17,0,105
1756,100,-16,0,106
1752,99,-16,0,107
1747,98,-16,0,108
1742,97,-15,0,109
1736,96,-15,0,110
1727,95,-15,0,111
1717,94,-15,0,112
1705,92,-15,0,113
1692,91,-15,0,114
1679,89,-15,0,115
1665,87,-16,0,116
1652,86,-17,0,117
1638,84,-18,0,118
1625,82,-19,0,119
1611,80,-20,0,120
1599,78,-21,0,121
1587,77,-22,0,122
1575,75,-23,0,123
1565,73,-23,0,124
1556,71,-24,0,125
1547,69,-24,0,126
1540,66,-24,0,127
1533,64,-24,0,128
1528,62,-24,0,129
1522,60,-23,0,130
1517,58,-23,0,131
1511,56,-22,0,132
1507,53,-22,0,133
1502,51,-21,0,134
1499,49,-21,0,135
1496,47,-20,0,136
1494,45,-20,0,137
1493,44,-20,0,138
1492,43,-19,0,139
1492,42,-20,0,140
1493,42,-19,0,141
1493,41,-19,0,142
1494,41,-19,0,143
1494,41,-19,0,144
1495,41,-20,0,145
1496,41,-20,0,146
1497,42,-20,0,147
1500,42,-20,0,148
1504,42,-20,0,149
1508,43,-19,0,150
1512,43,-19,0,151
1516,42,-19,0,152
1520,42,-18,0,153
1522,41,-18,0,154
1522,41,-18,0,155
1521,40,-17,0,156
1519,38,-17,0,157
1516,37,-16,0,158
1513,35,-16,0,159
1510,33,-15,0,160
1508,31,-15,0,161
1508,29,-14,0,162
1509,27,-14,0,163
1511,25,-14,0,164
1515,23,-14,0,165
1519,21,-14,0,166
1524,19,-14,0,167
1528,18,-14,0,168
1533,16,-14,0,169
1537,15,-14,0,170
1541,13,-14,0,171
1544,12,-14,0,172
1546,11,-15,0,173
1548,10,-15,0,174
1550,9,-14,0,175
1552,9,-14,0,176
1553,8,-14,0,177
1553,8,-14,0,178
1554,8,-14,0,179
1554,7,-13,0,180
1554,7,-12,0,181
1554,7,-12,0,182
1554,7,-11,0,183
1554,7,-10,0,184
1554,7,-9,0,185
1553,7,-8,0,186
1553,7,-8,0,187
1553,7,-7,0,188
1553,7,-6,0,189
1552,7,-6,0,190
1552,7,-5,0,191
1553,7,-4,0,192
1553,7,-4,0,193
1554,7,-3,0,194
1555,7,-3,0,195
1556,7,-3,0,196
1558,7,-2,0,197
1559,7,-2,0,198
1560,7,-2,0,199
1561,7,-2,0,200
1561,7,-2,0,201
1561,7,-2,0,202
1561,7,-2,0,203
1561,7,-2,0,204
1562,7,-2,0,205
1563,7,-2,0,206
1564,6,-2,0,207
1565,6,-2,0,208
1566,6,-2,0,209
1566,6,-3,0,210
1565,6,-3,0,211
1564,6,-3,0,212
1563,5,-3,0,213
1561,5,-3,0,214
1561,5,-3,0,215
1561,4,-3,0,216
1563,4,-3,0,217
1566,4,-3,0,218
1569,3,-3,0,219
1573,3,-3,0,220
1577,3,-3,0,221
1580,2,-3,0,222
1582,2,-3,0,223
1582,2,-3,0,224
1581,2,-3,0,225
1580,2,-3,0,226
1578,1,-3,0,227
1575,1,-3,0,228
1574,1,-3,0,229
1573,1,-2,0,230
1573,1,-2,0,231
1574,1,-2,0,232
1576,1,-2,0,233
1578,1,-2,0,234
1579,1,-2,0,235
1580,1,-2,0,236
1581,1,-2,0,237
1580,1,-2,0,238
1579,1,-2,0,239
1578,1,-2,0,240
1577,1,-2,0,241
1576,1,-1,0,242
1576,1,-1,0,243
1576,1,-1,0,244
1576,1,0,0,245
1576,1,0,0,246
1577,1,0,0,247
1577,1,0,0,248
1578,1,0,0,249
1578,1,0,0,250
1579,1,0,0,251
1579,1,0,0,252
1580,1,0,0,253
1581,1,0,0,254
1583,1,0,0,255
1584,1,0,0,256
1586,1,0,0,257
1587,1,0,0,258
1589,1,0,0,259
1589,1,0,0,260
1590,1,0,0,261
1590,2,0,0,262
1589,2,0,0,263
1589,2,0,0,264
1590,2,0,0,265
1590,2,0,0,266
1592,2,0,0,267
1593,2,0,0,268
1595,2,0,0,269
1598,2,0,0,270
1599,2,0,0,271
1600,2,0,0,272
1601,2,0,0,273
1600,2,0,0,274
1599,2,0,0,275
1598,2,0,0,276
1597,2,0,0,277
1596,2,0,0,278
1597,2,0,0,279
1598,2,0,0,280
1601,2,0,0,281
1604,2,0,0,282
1607,2,0,0,283
1609,2,0,0,284
1611,2,0,0,285
1611,2,0,0,286
1611,2,0,0,287
1609,2,0,0,288
1608,2,0,0,289
1606,2,0,0,290
1605,2,0,0,291
1604,2,0,0,292
1604,2,0,0,293
1604,2,0,0,294
1605,2,0,0,295
1607,2,0,0,296
1609,2,0,0,297
1612,2,0,0,298
1616,2,0,0,299
1622,2,0,0,300
1628,2,0,0,301
1635,2,0,0,302
1641,2,0,0,303
1647,2,0,0,304
1652,2,0,0,305
1654,2,0,0,306
1653,2,0,0,307
1650,3,0,0,308
1645,3,0,0,309
1640,3,0,0,310
1636,3,0,0,311
1634,3,0,0,312
1636,3,0,0,313
1641,3,0,0,314
1649,3,0,0,315
1656,3,0,0,316
1661,3,0,0,317
1661,3,0,0,318
1656,3,0,0,319
1644,3,0,0,320
1628,3,0,0,321
1610,3,0,0,322
1591,3,0,0,323
1576,3,0,0,324
1565,3,-1,0,325
1560,3,-1,0,326
1560,3,-1,0,327
1565,3,-1,0,328
1572,3,-1,0,329
1580,3,-1,0,330
1588,3,-1,0,331
1594,3,-1,0,332
1598,2,-1,0,333
1600,2,-1,0,334
1601,2,-2,0,335
1600,2,-2,0,336
1598,2,-2,0,337
1595,2,-1,0,338
1592,2,-1,0,339
1588,2,-1,0,340
1586,2,-1,0,341
1584,1,-1,0,342
1583,1,-1,0,343
1584,1,-1,0,344
1586,1,-1,0,345
1589,1,-1,0,346
1592,1,-1,0,347
1594,1,-1,0,348
1596,1,0,0,349
1596,1,0,0,350
1594,1,-1,0,351
1592,0,-1,0,352
1588,0,0,0,353
1585,0,0,0,354
1582,1,0,0,355
1581,1,0,0,356
1582,1,0,0,357
1584,1,0,0,358
1588,1,0,0,359
1593,2,0,0,360
1598,2,0,0,361
1602,2,0,0,362
1604,2,0,0,363
1606,2,0,0,364
1605,2,1,0,365
1604,3,1,0,366
1603,3,1,0,367
1601,2,2,0,368
1601,2,3,0,369
1601,3,4,0,370
1602,3,6,0,371
1604,3,8,0,372
1606,3,10,0,373
1609,3,11,0,374
1612,3,13,0,375
1615,4,13,0,376
1619,4,13,0,377
1622,4,13,0,378
1627,4,14,0,379
1631,4,16,0,380
1635,4,21,0,381
1639,4,28,0,382
1641,4,39,0,383
1642,5,54,0,384
1642,7,71,0,385
1640,10,91,0,386
1638,13,110,0,387
1636,17,129,0,388
1633,22,144,0,389
1632,27,156,0,390
1631,31,164,0,391
1630,34,168,0,392
1629,35,169,0,393
1630,35,169,0,394
1631,35,170,0,395
1635,37,174,0,396
1639,42,183,0,397
1646,54,199,0,398
1655,73,221,0,399
1666,102,254,0,400
1676,138,294,0,401
1686,182,339,0,402
1695,231,389,0,403
1701,279,440,0,404
1704,325,489,0,405
1705,364,533,0,406
1703,394,571,0,407
1699,414,601,0,408
1695,423,622,0,409
1689,426,635,0,410
1682,426,641,0,411
1674,429,641,0,412
1655,461,638,0,413
1643,501,640,0,414
1629,559,648,0,415
1615,640,663,0,416
1600,740,686,0,417
1586,854,716,0,418
1575,978,751,0,419
1566,1106,788,0,420
1562,1227,825,0,421
1560,1339,859,0,422
1562,1435,889,0,423
1566,1511,913,0,424
1571,1566,931,0,425
1576,1601,943,0,426
1581,1620,950,0,427
1585,1626,953,0,428
1588,1626,954,0,429
1589,1628,953,0,430
1590,1636,954,0,431
1592,1657,954,0,432
1594,1695,954,0,433
1596,1752,953,0,434
1600,1828,950,0,435
1603,1920,943,0,436
1607,2025,932,0,437
1609,2137,915,0,438
1609,2251,892,0,439
1607,2363,861,0,440
1603,2467,826,0,441
1597,2561,787,0,442
1589,2639,746,0,443
1582,2701,707,0,444
1575,2748,670,0,445
1570,2780,638,0,446
1567,2799,613,0,447
1564,2809,595,0,448
1560,2812,585,0,449
1552,2812,580,0,450
1538,2812,580,0,451
1518,2815,580,0,452
1492,2821,578,0,453
1465,2833,570,0,454
1442,2849,554,0,455
1431,2871,527,0,456
1443,2895,490,0,457
1487,2920,442,0,458
1569,2946,386,0,459
1692,2972,325,0,460
1854,2995,262,0,461
2044,3015,201,0,462
2248,3031,144,0,463
2447,3045,95,0,464
2620,3056,53,0,465
2747,3065,21,0,466
2813,3072,-4,0,467
2806,3077,-24,0,468
2723,3078,-40,1,469
2568,3074,-57,1,470
2352,3063,-76,0,471
2090,3043,-101,0,472
1800,3015,-133,0,473
1504,2978,-173,0,474
1220,2935,-220,0,475
966,2886,-272,0,476
758,2838,-327,0,477
603,2793,-382,0,478
508,2754,-436,0,479
471,2725,-483,0,480
486,2705,-524,0,481
543,2696,-556,0,482
630,2693,-581,0,483
734,2693,-597,0,484
841,2690,-608,0,485
942,2681,-614,0,486
1031,2658,-620,0,487
1105,2619,-628,0,488
1167,2560,-640,0,489
1222,2480,-657,0,490
1274,2381,-682,0,491
1330,2267,-712,0,492
1392,2143,-747,0,493
1461,2016,-784,0,494
1534,1895,-820,0,495
1607,1783,-854,0,496
1675,1688,-884,0,497
1731,1612,-908,0,498
1773,1556,-925,0,499
1799,1521,-937,0,500
1808,1503,-944,0,501
1804,1496,-947,0,502
1790,1496,-948,0,503
1772,1495,-948,0,504
1752,1488,-948,0,505
1735,1467,-948,0,506
1723,1430,-949,0,507
1716,1374,-948,0,508
1714,1300,-945,0,509
1715,1208,-938,0,510
1718,1105,-927,0,511
1721,994,-910,0,512
1724,881,-887,0,513
1726,770,-857,0,514
1726,666,-823,0,515
1725,574,-784,0,516
1725,496,-745,0,517
1724,434,-708,0,518
1725,387,-673,0,519
1726,355,-644,0,520
1729,336,-620,0,521
1732,326,-603,0,522
1734,323,-594,0,523
1736,322,-589,0,524
1737,322,-588,0,525
1737,320,-589,0,526
1735,313,-589,0,527
1732,302,-587,0,528
1729,285,-578,0,529
1726,263,-564,0,530
1724,239,-541,0,531
1722,211,-512,0,532
1722,183,-475,0,533
1724,154,-434,0,534
1727,127,-389,0,535
1731,102,-344,0,536
1736,80,-300,0,537
1741,63,-258,0,538
1746,49,-221,0,539
1750,38,-190,0,540
1752,31,-165,0,541
1753,27,-146,0,542
1752,24,-133,0,543
1749,23,-125,0,544
1745,22,-121,0,545
1740,22,-120,0,546
1735,22,-119,0,547
1732,22,-119,0,548
1730,22,-118,0,549
1730,22,-116,0,550
1732,22,-111,0,551
1737,22,-104,0,552
1742,22,-96,0,553
1749,22,-86,0,554
1754,22,-75,0,555
1759,22,-64,0,556
1761,22,-52,0,557
1762,23,-42,0,558
1762,23,-32,0,559
1761,24,-23,0,560
1760,24,-16,0,561
1761,25,-11,0,562
1762,25,-7,0,563
1766,25,-4,0,564
1771,25,-3,0,565
1778,25,-2,0,566
1785,25,-2,0,567
1793,25,-2,0,568
1800,25,-3,0,569
1805,24,-3,0,570
1809,24,-3,0,571
1812,24,-4,0,572
1812,24,-4,0,573
1811,24,-4,0,574
1809,24,-4,0,575
1806,24,-4,0,576
1803,24,-4,0,577
1801,24,-4,0,578
1800,23,-4,0,579
1800,22,-4,0,580
1802,22,-4,0,581
1804,21,-4,0,582
1807,20,-4,0,583
1810,19,-4,0,584
1812,18,-5,0,585
1813,16,-5,0,586
1813,15,-5,0,587
1812,15,-5,0,588
1811,14,-5,0,589
1811,14,-5,0,590
1811,14,-5,0,591
1812,14,-5,0,592
1813,14,-4,0,593
1815,14,-4,0,594
1816,14,-4,0,595
1815,14,-4,0,596
1813,14,-4,0,597
1808,14,-4,0,598
1802,14,-5,0,599
1794,14,-5,0,600
1785,14,-5,0,601
1777,14,-4,0,602
1769,14,-4,0,603
1763,14,-4,0,604
1758,14,-4,0,605
1753,14,-3,0,606
1749,14,-3,0,607
1744,14,-2,0,608
1737,14,-2,0,609
1729,14,-2,0,610
1719,14,-2,0,611
1707,14,-2,0,612
1695,14,-2,0,613
1681,14,-2,0,614
1667,14,-2,0,615
1653,13,-2,0,616
1639,13,-2,0,617
1625,13,-3,0,618
1612,13,-3,0,619
1599,13,-3,0,620
1587,13,-3,0,621
1576,13,-3,0,622
1565,13,-4,0,623
1556,13,-4,0,624
1548,13,-4,0,625
1541,12,-4,0,626
1535,12,-4,0,627
1529,12,-4,0,628
1523,11,-4,0,629
1518,11,-4,0,630
1513,10,-4,0,631
1508,10,-4,0,632
1504,9,-4,0,633
1500,9,-4,0,634
1497,8,-4,0,635
1496,8,-4,0,636
1494,7,-4,0,637
1494,7,-4,0,638
1493,7,-4,0,639
1493,6,-4,0,640
1493,6,-4,0,641
1493,6,-4,0,642
1493,5,-4,0,643
1493,5,-5,0,644
1495,5,-5,0,645
1497,5,-5,0,646
1500,5,-5,0,647
1504,5,-5,0,648
1508,5,-5,0,649
1513,5,-5,0,650
1517,5,-5,0,651
1520,5,-5,0,652
1522,5,-5,0,653
1522,5,-4,0,654
1521,4,-4,0,655
1518,4,-4,0,656
1515,4,-4,0,657
1511,3,-4,0,658
1508,3,-4,0,659
1506,3,-3,0,660
1506,2,-3,0,661
1507,2,-3,0,662
1510,2,-3,0,663
1514,1,-3,0,664
1518,1,-3,0,665
1523,1,-2,0,666
1528,1,-2,0,667
1532,0,-2,0,668
1536,0,-2,0,669
1540,0,-2,0,670
1543,0,-2,0,671
1545,0,-2,0,672
1547,0,-2,0,673
1549,0,-2,0,674
1550,0,-2,0,675
1552,0,-2,0,676
1552,0,-2,0,677
1553,0,-2,0,678
1553,0,-2,0,679
1553,0,-2,0,680
1553,0,-2,0,681
1553,0,-2,0,682
1552,0,-2,0,683
1552,0,-1,0,684
1552,0,-1,0,685
1553,0,-1,0,686
1553,0,-1,0,687
1553,0,-1,0,688
1553,0,-1,0,689
1553,0,-1,0,690
1553,0,0,0,691
1554,0,0,0,692
1554,0,0,0,693
1554,0,0,0,694
1555,0,0,0,695
1556,0,0,0,696
1558,0,0,0,697
1559,0,0,0,698
1560,0,0,0,699
1561,0,0,0,700
1561,0,0,0,701
1561,0,0,0,702
1561,0,0,0,703
1562,0,0,0,704
1562,0,0,0,705
1563,0,0,0,706
1564,0,0,0,707
1565,0,0,0,708
1565,0,0,0,709
1564,0,0,0,710
1563,0,0,0,711
1562,0,0,0,712
1561,0,0,0,713
1560,0,0,0,714
1560,0,0,0,715
1562,0,0,0,716
1564,0,0,0,717
1568,0,0,0,718
1572,0,0,0,719
1576,0,0,0,720
1579,0,0,0,721
1581,0,0,0,722
1582,0,0,0,723
1581,0,0,0,724
1579,0,0,0,725
1577,0,0,0,726
1574,0,0,0,727
1573,0,0,0,728
1572,0,0,0,729
1572,0,0,0,730
1574,0,0,0,731
1575,0,0,0,732
1577,0,0,0,733
1579,0,0,0,734
1580,0,0,0,735
1581,0,0,0,736
1580,0,0,0,737
1579,0,0,0,738
1578,0,0,0,739
1577,0,0,0,740
1576,0,0,0,741
1576,0,0,0,742
1576,0,0,0,743
1576,0,0,0,744
1577,0,0,0,745
1577,0,0,0,746
1578,0,0,0,747
1578,0,0,0,748
1579,0,0,0,749
1579,0,0,0,750
1580,0,0,0,751
1580,0,0,0,752
1581,0,0,0,753
1582,0,0,0,754
1584,0,0,0,755
1585,0,0,0,756
1587,0,0,0,757
1588,0,0,0,758
1589,0,0,0,759
1589,0,0,0,760
1589,0,0,0,761
1589,0,0,0,762
1590,0,0,0,763
1590,0,1,0,764
1591,0,1,0,765
1593,0,1,0,766
1594,0,1,0,767
1596,0,1,0,768
1598,0,1,0,769
1600,0,1,0,770
1600,0,1,0,771
1600,0,1,0,772
1599,1,2,0,773
1597,1,2,0,774
1596,1,2,0,775
1595,1,2,0,776
1594,1,2,0,777
1595,2,2,0,778
1597,2,2,0,779
1599,2,2,0,780
1602,3,2,0,781
1605,3,2,0,782
1608,3,2,0,783
1609,4,2,0,784
1610,4,2,0,785
1610,4,2,0,786
1608,5,2,0,787
1607,5,2,0,788
1606,5,2,0,789
1605,6,2,0,790
1604,6,2,0,791
1604,6,2,0,792
1605,6,2,0,793
1605,6,2,0,794
1607,6,2,0,795
1609,6,1,0,796
1612,6,1,0,797
1616,6,1,0,798
1621,6,1,0,799
1627,6,1,0,800
1634,6,1,0,801
1640,6,1,0,802
1646,6,1,0,803
1651,6,1,0,804
1653,6,1,0,805
1653,6,1,0,806
1650,6,1,0,807
1645,6,1,0,808
1640,6,1,0,809
1636,6,1,0,810
1635,6,1,0,811
1637,6,1,0,812
1642,6,0,0,813
1649,6,1,0,814
1656,6,1,0,815
1660,6,1,0,816
1660,6,1,0,817
1654,6,1,0,818
1643,6,1,0,819
1627,7,1,0,820
1608,7,1,0,821
1590,7,1,0,822
1575,7,1,0,823
1565,7,1,0,824
1561,8,1,0,825
1561,8,1,0,826
1566,8,1,0,827
1573,8,1,0,828
1580,8,1,0,829
1587,8,1,0,830
1593,9,0,0,831
1597,9,0,0,832
1599,9,0,0,833
1600,9,0,0,834
1599,9,0,0,835
1597,9,0,0,836
1595,9,0,0,837
1592,9,0,0,838
1588,9,0,0,839
1586,9,0,0,840
1584,9,0,0,841
1583,9,0,0,842
1584,9,-1,0,843
1586,9,-1,0,844
1589,9,-1,0,845
1592,9,-1,0,846
1594,9,-1,0,847
1595,8,-2,0,848
1595,8,-2,0,849
1594,8,-2,0,850
1591,8,-2,0,851
1587,8,-2,0,852
1584,7,-2,0,853
1581,7,-2,0,854
1581,7,-2,0,855
1582,7,-1,0,856
1584,6,-1,0,857
1588,6,0,0,858
1593,6,0,0,859
1598,6,0,0,860
1601,6,0,0,861
1604,5,0,0,862
1605,5,1,0,863
1604,5,1,0,864
1603,5,1,0,865
1602,5,1,0,866
1601,5,1,0,867
1601,5,2,0,868
1602,5,3,0,869
1603,5,5,0,870
1605,6,7,0,871
1607,6,9,0,872
1610,7,10,0,873
1612,8,11,0,874
1615,9,12,0,875
1619,10,12,0,876
1622,10,12,0,877
1627,11,13,0,878
1631,11,15,0,879
1635,12,20,0,880
1639,12,27,0,881
1641,12,38,0,882
1642,12,52,0,883
1641,13,69,0,884
1640,15,88,0,885
1638,18,107,0,886
1636,22,124,0,887
1634,27,139,0,888
1633,31,151,0,889
1632,35,158,0,890
1631,37,161,0,891
1631,39,162,0,892
1631,39,162,0,893
1632,39,163,0,894
1635,40,167,0,895
1640,46,177,0,896
1647,57,194,0,897
1656,75,218,0,898
1666,102,252,0,899
1677,137,293,0,900
1687,179,341,0,901
1696,226,393,0,902
1702,273,445,0,903
1705,317,496,0,904
1705,354,543,0,905
1703,383,583,0,906
1699,401,615,0,907
1693,410,637,0,908
1687,412,650,0,909
1680,412,656,0,910
1673,415,656,0,911
1654,451,654,0,912
1643,494,656,0,913
1630,556,664,0,914
1616,641,679,0,915
1601,745,702,0,916
1588,865,732,0,917
1576,994,767,0,918
1568,1127,805,0,919
1562,1254,844,0,920
1561,1371,880,0,921
1562,1471,911,0,922
1566,1551,937,0,923
1571,1608,957,0,924
1577,1644,970,0,925
1582,1663,978,0,926
1586,1669,982,0,927
1589,1670,984,0,928
1590,1671,985,0,929
1591,1679,985,0,930
1592,1701,985,0,931
1594,1739,985,0,932
1596,1796,984,0,933
1600,1871,980,0,934
1603,1964,973,0,935
1606,2071,961,0,936
1608,2186,943,0,937
1608,2303,918,0,938
1607,2417,886,0,939
1602,2524,849,0,940
1597,2619,809,0,941
1590,2699,767,0,942
1583,2763,725,0,943
1578,2811,687,0,944
1573,2844,655,0,945
1570,2864,629,0,946
1567,2874,611,0,947
1563,2877,600,0,948
1554,2876,595,0,949
1541,2876,594,0,950
1520,2878,594,0,951
1495,2885,592,0,952
1467,2897,585,0,953
1443,2914,568,0,954
1433,2937,542,0,955
1445,2962,505,0,956
1489,2990,459,0,957
1573,3018,403,0,958
1699,3045,341,0,959
1863,3069,278,0,960
2055,3091,216,0,961
2259,3109,159,0,962
2456,3124,109,0,963
2625,3136,68,0,964
2746,3145,35,0,965
2805,3152,9,0,966
2792,3156,-11,0,967
2706,3157,-28,0,968
2553,3153,-46,0,969
2341,3142,-68,0,970
2087,3123,-94,0,971
1806,3096,-127,0,972
1518,3061,-168,0,973
1240,3019,-217,0,974
989,2972,-272,0,975
778,2926,-329,0,976
619,2883,-387,0,977
516,2845,-442,0,978
472,2817,-492,0,979
482,2799,-536,0,980
537,2790,-570,0,981
624,2788,-595,0,982
729,2788,-612,0,983
839,2785,-624,0,984
943,2774,-631,0,985
1033,2749,-637,0,986
1109,2706,-645,0,987
1172,2644,-657,0,988
1226,2560,-675,0,989
1279,2456,-699,0,990
1334,2337,-729,0,991
1396,2207,-764,0,992
1465,2075,-802,0,993
1537,1948,-840,0,994
1610,1832,-875,0,995
1677,1732,-906,0,996
1733,1652,-932,0,997
1774,1595,-951,0,998
1799,1558,-964,0,999
1808,1540,-973,0,1000
1804,1533,-977,0,1001
1791,1533,-979,0,1002
1773,1532,-980,0,1003
1754,1524,-981,0,1004
1738,1503,-982,0,1005
1726,1466,-982,0,1006
1718,1410,-981,0,1007
1716,1335,-977,0,1008
1717,1244,-970,0,1009
1719,1138,-958,0,1010
1722,1025,-940,0,1011
1725,909,-916,0,1012
1726,796,-884,0,1013
1726,690,-848,0,1014
1726,595,-808,0,1015
1725,516,-767,0,1016
1724,452,-728,0,1017
1725,403,-692,0,1018
1726,370,-661,0,1019
1729,349,-636,0,1020
1732,339,-620,0,1021
1734,335,-609,0,1022
1736,334,-605,0,1023
1737,334,-604,0,1024
1737,332,-604,0,1025
1736,325,-604,0,1026
1733,312,-602,0,1027
1730,295,-593,0,1028
1727,272,-578,0,1029
1725,246,-556,0,1030
1723,217,-526,0,1031
1723,188,-490,0,1032
1724,158,-447,0,1033
1727,129,-402,0,1034
1731,103,-356,0,1035
1736,80,-311,0,1036
1741,62,-268,0,1037
1746,47,-230,0,1038
1750,37,-199,0,1039
1752,29,-173,0,1040
1753,25,-153,0,1041
1752,23,-140,0,1042
1749,22,-131,0,1043
1745,21,-127,0,1044
1740,21,-125,0,1045
1735,22,-125,0,1046
1732,22,-125,0,1047
1730,21,-124,0,1048
1730,21,-121,0,1049
1733,21,-116,0,1050
1738,20,-109,0,1051
1743,20,-100,0,1052
1749,20,-89,0,1053
1755,20,-78,0,1054
1759,20,-66,0,1055
1762,20,-54,0,1056
1763,21,-42,0,1057
1763,21,-32,0,1058
1762,22,-23,0,1059
1761,22,-16,0,1060
1761,23,-10,0,1061
1763,23,-6,0,1062
1766,23,-3,0,1063
1772,23,-2,0,1064
1778,24,-2,0,1065
1785,24,-2,0,1066
1793,24,-2,0,1067
1799,24,-2,0,1068
1805,24,-3,0,1069
1809,24,-3,0,1070
1811,24,-3,0,1071
1812,24,-3,0,1072
1811,24,-4,0,1073
1809,24,-3,0,1074
1806,24,-3,0,1075
1804,24,-3,0,1076
1802,24,-3,0,1077
1801,23,-3,0,1078
1801,23,-3,0,1079
1803,22,-3,0,1080
1805,21,-3,0,1081
1808,20,-4,0,1082
1810,19,-4,0,1083
1812,18,-4,0,1084
1813,17,-4,0,1085
1812,16,-4,0,1086
1812,15,-4,0,1087
1811,14,-4,0,1088
1810,14,-4,0,1089
1811,13,-4,0,1090
1812,13,-4,0,1091
1814,13,-4,0,1092
1815,13,-4,0,1093
1817,13,-4,0,1094
1816,14,-4,0,1095
1813,14,-4,0,1096
1808,14,-4,0,1097
1801,14,-4,0,1098
1793,14,-4,0,1099
1784,14,-4,0,1100
1775,14,-4,0,1101
1767,14,-4,0,1102
1761,14,-4,0,1103
1757,14,-4,0,1104
1753,14,-3,0,1105
1748,14,-3,0,1106
1743,14,-2,0,1107
1737,14,-2,0,1108
1728,14,-2,0,1109
1718,14,-2,0,1110
1706,14,-2,0,1111
1694,14,-2,0,1112
1681,14,-2,0,1113
1667,14,-2,0,1114
1654,14,-2,0,1115
1640,14,-2,0,1116
1627,14,-2,0,1117
1614,14,-3,0,1118
1601,13,-3,0,1119
1589,13,-3,0,1120
1577,13,-3,0,1121
1567,13,-4,0,1122
1557,13,-4,0,1123
1549,13,-4,0,1124
1542,12,-4,0,1125
1535,12,-4,0,1126
1529,12,-4,0,1127
1523,11,-4,0,1128
1518,11,-4,0,1129
1513,10,-4,0,1130
1508,10,-4,0,1131
1504,9,-4,0,1132
1501,9,-4,0,1133
1498,8,-4,0,1134
1496,8,-4,0,1135
1495,7,-5,0,1136
1495,7,-5,0,1137
1495,7,-5,0,1138
1495,6,-5,0,1139
1495,6,-5,0,1140
1495,5,-5,0,1141
1495,5,-5,0,1142
1496,4,-5,0,1143
1497,4,-5,0,1144
1498,4,-5,0,1145
1501,4,-5,0,1146
1505,4,-5,0,1147
1509,4,-5,0,1148
1513,4,-5,0,1149
1517,4,-5,0,1150
1519,4,-5,0,1151
1521,4,-5,0,1152
1521,3,-4,0,1153
1520,3,-4,0,1154
1517,3,-4,0,1155
1514,3,-4,0,1156
1511,3,-4,0,1157
1509,2,-4,0,1158
1507,2,-3,0,1159
1507,2,-3,0,1160
1508,2,-3,0,1161
1511,2,-3,0,1162
1515,1,-3,0,1163
1519,1,-2,0,1164
1524,1,-2,0,1165
1528,1,-2,0,1166
1533,0,-2,0,1167
1536,0,-2,0,1168
1539,0,-2,0,1169
1542,0,-2,0,1170
1545,0,-2,0,1171
1547,0,-2,0,1172
1549,0,-2,0,1173
1550,0,-2,0,1174
1552,0,-2,0,1175
1553,0,-2,0,1176
1553,0,-2,0,1177
1553,0,-2,0,1178
1553,0,-2,0,1179
1553,0,-2,0,1180
1553,0,-1,0,1181
1553,0,-1,0,1182
1552,0,-1,0,1183
1552,0,-1,0,1184
1552,0,-1,0,1185
1552,0,-1,0,1186
1552,0,-1,0,1187
1552,0,-1,0,1188
1552,0,-1,0,1189
1553,0,0,0,1190
1553,0,0,0,1191
1554,0,0,0,1192
1555,0,0,0,1193
1556,0,0,0,1194
1557,0,0,0,1195
1558,0,0,0,1196
1558,0,0,0,1197
1559,0,0,0,1198
1559,0,0,0,1199
1559,0,0,0,1200
1560,0,0,0,1201
1560,0,0,0,1202
1561,0,0,0,1203
1562,0,0,0,1204
1564,0,0,0,1205
1565,0,0,0,1206
1565,0,0,0,1207
1565,0,0,0,1208
1565,0,0,0,1209
1563,0,0,0,1210
1562,0,0,0,1211
1561,0,0,0,1212
1560,0,0,0,1213
1561,0,0,0,1214
1562,0,0,0,1215
1565,0,0,0,1216
1568,0,0,0,1217
1572,0,0,0,1218
1576,0,0,0,1219
1579,0,0,0,1220
1581,0,0,0,1221
1581,0,0,0,1222
1581,0,0,0,1223
1579,0,0,0,1224
1576,0,0,0,1225
1574,0,0,0,1226
1573,0,0,0,1227
1572,0,0,0,1228
1572,0,0,0,1229
1573,0,0,0,1230
1575,0,0,0,1231
1577,0,0,0,1232
1578,0,0,0,1233
1579,0,0,0,1234
1580,0,0,0,1235
1579,0,0,0,1236
1579,0,0,0,1237
1578,0,0,0,1238
1577,0,0,0,1239
1576,0,0,0,1240
1576,0,0,0,1241
1576,0,0,0,1242
1576,0,0,0,1243
1577,0,0,0,1244
1577,0,0,0,1245
1578,0,0,0,1246
1578,0,0,0,1247
1578,0,0,0,1248
1579,0,0,0,1249
1579,0,0,0,1250
1580,0,0,0,1251
1581,0,0,0,1252
1582,0,0,0,1253
1583,0,0,0,1254
1585,0,0,0,1255
1587,0,0,0,1256
1588,0,0,0,1257
1589,0,0,0,1258
1590,0,0,0,1259
1590,0,0,0,1260
1590,0,0,0,1261
1590,0,0,0,1262
1590,0,0,0,1263
1590,0,0,0,1264
1591,0,0,0,1265
1593,0,0,0,1266
1595,0,0,0,1267
1597,0,0,0,1268
1598,0,0,0,1269
1599,0,0,0,1270
1600,0,0,0,1271
1599,0,0,0,1272
1598,0,0,0,1273
1596,0,0,0,1274
1595,0,0,0,1275
1594,0,0,0,1276
1595,1,0,0,1277
1596,1,0,0,1278
1599,1,0,0,1279
1602,1,0,0,1280
1605,1,0,0,1281
1608,1,0,0,1282
1609,1,0,0,1283
1610,1,0,0,1284
1609,1,0,0,1285
1608,1,0,0,1286
1607,1,0,0,1287
1605,1,0,0,1288
1604,1,0,0,1289
1604,1,0,0,1290
1604,1,0,0,1291
1604,1,0,0,1292
1605,1,0,0,1293
1607,1,0,0,1294
1609,1,0,0,1295
1612,1,0,0,1296
1616,1,0,0,1297
1621,1,0,0,1298
1626,1,0,0,1299
1633,1,0,0,1300
1640,1,0,0,1301
1646,1,0,0,1302
1650,1,0,0,1303
1652,1,0,0,1304
1652,1,0,0,1305
1649,1,0,0,1306
1645,1,0,0,1307
1640,1,0,0,1308
1636,1,0,0,1309
1634,1,0,0,1310
1636,1,0,0,1311
1641,1,0,0,1312
1648,1,0,0,1313
1655,1,0,0,1314
1660,1,0,0,1315
1661,1,0,0,1316
1656,1,0,0,1317
1645,1,0,0,1318
1630,1,0,0,1319
1611,1,0,0,1320
1593,1,0,0,1321
1577,2,0,0,1322
1566,2,0,0,1323
1561,2,0,0,1324
1561,2,0,0,1325
1565,2,0,0,1326
1572,2,0,0,1327
1580,2,0,0,1328
1587,2,0,0,1329
1594,2,0,0,1330
1598,3,0,0,1331
1600,3,0,0,1332
1600,3,0,0,1333
1600,3,0,0,1334
1597,3,0,0,1335
1595,3,0,0,1336
1591,3,0,0,1337
1588,3,0,0,1338
1585,3,0,0,1339
1584,3,0,0,1340
1583,3,0,0,1341
1585,3,0,0,1342
1587,3,1,0,1343
1590,3,1,0,1344
1593,3,0,0,1345
1595,3,0,0,1346
1596,3,0,0,1347
1596,3,0,0,1348
1594,3,0,0,1349
1591,3,0,0,1350
1587,3,0,0,1351
1583,3,0,0,1352
1581,3,0,0,1353
1580,3,0,0,1354
1580,3,0,0,1355
1583,3,1,0,1356
1587,3,1,0,1357
1592,3,1,0,1358
1597,3,1,0,1359
1601,4,1,0,1360
1604,4,2,0,1361
1605,4,2,0,1362
1604,4,2,0,1363
1603,4,2,0,1364
1602,4,2,0,1365
1601,4,3,0,1366
1601,4,3,0,1367
1602,4,5,0,1368
1603,4,6,0,1369
1605,4,8,0,1370
1607,5,9,0,1371
1610,5,11,0,1372
1612,6,12,0,1373
1615,7,13,0,1374
1619,7,13,0,1375
1623,8,13,0,1376
1627,8,13,0,1377
1632,9,15,0,1378
1636,9,20,0,1379
1640,9,27,0,1380
1642,9,38,0,1381
1643,9,52,0,1382
1642,11,69,0,1383
1641,12,87,0,1384
1638,16,106,0,1385
1636,19,124,0,1386
1634,24,138,0,1387
1632,28,149,0,1388
1631,32,156,0,1389
1630,35,159,0,1390
1630,36,161,0,1391
1630,36,161,0,1392
1632,36,162,0,1393
1635,38,166,0,1394
1640,43,176,0,1395
1647,54,192,0,1396
1656,73,217,0,1397
1666,100,251,0,1398
1677,135,292,0,1399
1687,177,340,0,1400
1695,224,391,0,1401
1701,271,444,0,1402
1704,315,495,0,1403
1705,351,542,0,1404
1703,379,582,0,1405
1699,396,613,0,1406
1694,404,635,0,1407
1687,407,648,0,1408
1681,407,655,0,1409
1673,410,655,0,1410
1654,446,653,0,1411
1643,488,655,0,1412
1630,551,663,0,1413
1616,635,677,0,1414
1601,739,699,0,1415
1588,859,728,0,1416
1576,989,762,0,1417
1567,1121,799,0,1418
1562,1248,837,0,1419
1560,1365,872,0,1420
1561,1465,902,0,1421
1565,1545,927,0,1422
1571,1602,946,0,1423
1576,1638,958,0,1424
1581,1657,965,0,1425
1585,1663,970,0,1426
1588,1664,971,0,1427
1590,1665,973,0,1428
1591,1673,973,0,1429
1592,1694,973,0,1430
1594,1730,973,0,1431
1596,1785,972,0,1432
1600,1859,968,0,1433
1603,1950,960,0,1434
1606,2054,947,0,1435
1608,2166,928,0,1436
1608,2281,902,0,1437
1606,2392,869,0,1438
1602,2497,831,0,1439
1595,2590,789,0,1440
1588,2668,745,0,1441
1581,2730,703,0,1442
1575,2777,663,0,1443
1571,2809,629,0,1444
1568,2829,602,0,1445
1565,2839,583,0,1446
1560,2842,572,0,1447
1551,2842,567,0,1448
1536,2841,566,0,1449
1516,2843,566,0,1450
1491,2848,564,0,1451
1464,2858,557,0,1452
1444,2872,541,0,1453
1436,2892,515,0,1454
1451,2914,479,0,1455
1497,2938,433,0,1456
1580,2962,378,0,1457
1702,2985,317,0,1458
1861,3006,255,0,1459
2047,3025,195,0,1460
2247,3040,139,0,1461
2442,3052,91,0,1462
2613,3061,50,0,1463
2739,3069,18,0,1464
2806,3075,-7,0,1465
2802,3079,-27,0,1466
2723,3080,-44,0,1467
2573,3076,-62,0,1468
2361,3066,-83,0,1469
2102,3047,-109,0,1470
1815,3020,-142,0,1471
1519,2985,-184,0,1472
1234,2943,-232,0,1473
979,2896,-285,0,1474
767,2849,-342,0,1475
609,2806,-398,0,1476
511,2769,-453,0,1477
472,2742,-502,0,1478
486,2725,-544,0,1479
544,2716,-576,0,1480
633,2714,-600,0,1481
739,2714,-616,0,1482
848,2711,-626,0,1483
950,2700,-632,0,1484
1039,2675,-637,0,1485
1112,2633,-644,0,1486
1173,2571,-655,0,1487
1226,2487,-671,0,1488
1277,2383,-694,0,1489
1331,2265,-724,0,1490
1392,2136,-758,0,1491
1459,2004,-795,0,1492
1532,1877,-832,0,1493
1605,1760,-866,0,1494
1672,1660,-896,0,1495
1729,1580,-921,0,1496
1771,1523,-939,0,1497
1797,1487,-951,0,1498
1807,1468,-958,0,1499
1804,1462,-962,0,1500
1791,1462,-964,0,1501
1773,1461,-966,0,1502
1753,1453,-966,0,1503
1736,1433,-967,0,1504
1724,1398,-967,0,1505
1717,1344,-966,0,1506
1714,1272,-962,0,1507
1715,1182,-955,0,1508
1719,1079,-942,0,1509
1723,969,-923,0,1510
1726,856,-897,0,1511
1727,746,-864,0,1512
1728,642,-827,0,1513
1727,550,-786,0,1514
1726,473,-744,0,1515
1725,411,-703,0,1516
1724,364,-665,0,1517
1726,332,-633,0,1518
1728,312,-607,0,1519
1730,301,-589,0,1520
1733,297,-578,0,1521
1735,297,-574,0,1522
1736,297,-573,0,1523
1736,295,-574,0,1524
1735,289,-574,0,1525
1732,280,-571,0,1526
1729,265,-563,0,1527
1726,245,-549,0,1528
1724,223,-527,0,1529
1722,198,-498,0,1530
1722,172,-462,0,1531
1724,146,-421,0,1532
1726,121,-377,0,1533
1731,98,-332,0,1534
1736,79,-288,0,1535
1741,63,-246,0,1536
1746,51,-210,0,1537
1750,42,-178,0,1538
1753,35,-154,0,1539
1753,31,-134,0,1540
1752,28,-122,0,1541
1749,27,-114,0,1542
1745,26,-109,0,1543
1740,26,-108,0,1544
1735,27,-108,0,1545
1731,27,-108,0,1546
1729,27,-107,0,1547
1729,27,-104,0,1548
1732,27,-101,0,1549
1736,27,-95,0,1550
1742,27,-87,0,1551
1748,27,-78,0,1552
1754,27,-68,0,1553
1758,27,-57,0,1554
1761,28,-47,0,1555
1762,28,-37,0,1556
1762,29,-28,0,1557
1761,29,-20,0,1558
1760,29,-14,0,1559
1760,29,-10,0,1560
1762,29,-6,0,1561
1766,29,-4,0,1562
1771,29,-2,0,1563
1778,29,-2,0,1564
1786,29,-2,0,1565
1794,29,-2,0,1566
1801,29,-3,0,1567
1807,29,-4,0,1568
1811,29,-4,0,1569
1814,30,-4,0,1570
1814,30,-4,0,1571
1812,30,-4,0,1572
1810,30,-5,0,1573
1806,29,-5,0,1574
1803,29,-5,0,1575
1801,29,-5,0,1576
1800,28,-5,0,1577
1800,28,-5,0,1578
1802,27,-5,0,1579
1805,26,-6,0,1580
1808,24,-6,0,1581
1810,23,-6,0,1582
1812,22,-6,0,1583
1813,20,-6,0,1584
1813,19,-6,0,1585
1812,18,-6,0,1586
1811,17,-6,0,1587
1810,17,-6,0,1588
1810,17,-6,0,1589
1812,16,-6,0,1590
1813,16,-6,0,1591
1815,16,-6,0,1592
1816,16,-6,0,1593
1816,16,-6,0,1594
1813,16,-6,0,1595
1808,16,-6,0,1596
1801,16,-6,0,1597
1792,16,-6,0,1598
1783,16,-6,0,1599
1774,16,-6,0,1600
1767,16,-6,0,1601
1760,16,-5,0,1602
1755,16,-5,0,1603
1751,16,-4,0,1604
1747,16,-4,0,1605
1742,16,-4,0,1606
1736,16,-3,0,1607
1728,16,-3,0,1608
1718,16,-2,0,1609
1707,15,-2,0,1610
1694,15,-2,0,1611
1681,15,-2,0,1612
1668,15,-2,0,1613
1654,15,-2,0,1614
1641,15,-3,0,1615
1627,15,-3,0,1616
1614,15,-3,0,1617
1601,15,-3,0,1618
1589,15,-4,0,1619
1578,15,-4,0,1620
1568,15,-4,0,1621
1558,14,-4,0,1622
1550,14,-4,0,1623
1543,14,-4,0,1624
1536,13,-4,0,1625
1530,13,-5,0,1626
1524,13,-5,0,1627
1518,12,-5,0,1628
1513,12,-5,0,1629
1508,11,-5,0,1630
1504,11,-5,0,1631
1500,10,-5,0,1632
1498,10,-4,0,1633
1496,9,-4,0,1634
1495,9,-5,0,1635
1495,8,-5,0,1636
1495,8,-5,0,1637
1494,7,-5,0,1638
1494,7,-5,0,1639
1494,6,-5,0,1640
1494,6,-6,0,1641
1494,6,-6,0,1642
1495,5,-6,0,1643
1497,5,-6,0,1644
1499,5,-6,0,1645
1503,5,-6,0,1646
1507,5,-6,0,1647
1512,5,-6,0,1648
1516,5,-6,0,1649
1519,5,-6,0,1650
1521,5,-5,0,1651
1521,4,-5,0,1652
1520,4,-5,0,1653
1518,4,-5,0,1654
1514,3,-4,0,1655
1511,3,-4,0,1656
1509,3,-4,0,1657
1507,2,-4,0,1658
1507,2,-4,0,1659
1508,2,-4,0,1660
1510,1,-3,0,1661
1514,1,-3,0,1662
1518,1,-3,0,1663
1523,0,-3,0,1664
1527,0,-3,0,1665
1532,0,-2,0,1666
1535,0,-2,0,1667
1539,0,-2,0,1668
1542,0,-2,0,1669
1545,0,-2,0,1670
1547,0,-2,0,1671
1549,0,-2,0,1672
1551,0,-2,0,1673
1552,0,-2,0,1674
1553,0,-2,0,1675
1553,0,-2,0,1676
1553,0,-2,0,1677
1553,0,-2,0,1678
1553,0,-2,0,1679
1553,0,-2,0,1680
1553,0,-1,0,1681
1552,0,-1,0,1682
1552,0,-1,0,1683
1552,0,-1,0,1684
1552,0,-1,0,1685
1552,0,-1,0,1686
1552,0,0,0,1687
1552,0,0,0,1688
1552,0,0,0,1689
1553,0,0,0,1690
1553,0,0,0,1691
1554,0,0,0,1692
1555,0,0,0,1693
1557,0,0,0,1694
1558,0,0,0,1695
1558,0,0,0,1696
1559,0,0,0,1697
1559,0,0,0,1698
1559,0,0,0,1699
1560,0,0,0,1700
1560,0,0,0,1701
1561,0,0,0,1702
1562,0,0,0,1703
1563,0,0,0,1704
1564,0,0,0,1705
1564,0,0,0,1706
1564,0,0,0,1707
1564,0,0,0,1708
1563,0,0,0,1709
1561,0,0,0,1710
1560,0,0,0,1711
1560,0,0,0,1712
1560,0,0,0,1713
1562,0,0,0,1714
1564,0,0,0,1715
1568,0,0,0,1716
1572,0,0,0,1717
1575,0,0,0,1718
1579,0,0,0,1719
1581,0,0,0,1720
1581,0,0,0,1721
1581,0,0,0,1722
1579,0,0,0,1723
1577,0,0,0,1724
1575,0,0,0,1725
1573,0,0,0,1726
1572,0,0,0,1727
1572,0,0,0,1728
1573,0,0,0,1729
1575,0,0,0,1730
1576,0,0,0,1731
1578,0,0,0,1732
1579,0,0,0,1733
1579,0,0,0,1734
1579,0,0,0,1735
1579,0,0,0,1736
1578,0,0,0,1737
1577,0,0,0,1738
1577,0,0,0,1739
1576,0,0,0,1740
1577,0,0,0,1741
1577,0,0,0,1742
1577,0,0,0,1743
1578,0,0,0,1744
1578,0,0,0,1745
1578,0,0,0,1746
1579,0,0,0,1747
1579,0,0,0,1748
1579,0,0,0,1749
1580,0,0,0,1750
1581,0,0,0,1751
1582,0,0,0,1752
1583,0,0,0,1753
1585,0,0,0,1754
1587,0,0,0,1755
1588,0,0,0,1756
1589,0,0,0,1757
1589,0,0,0,1758
1589,1,0,0,1759
1589,1,0,0,1760
1589,1,0,0,1761
1589,1,0,0,1762
1590,1,0,0,1763
1592,1,0,0,1764
1594,1,0,0,1765
1596,1,0,0,1766
1597,2,0,0,1767
1599,2,0,0,1768
1600,2,0,0,1769
1600,2,0,0,1770
1599,2,0,0,1771
1598,2,0,0,1772
1596,2,0,0,1773
1595,2,0,0,1774
1594,2,0,0,1775
1595,2,0,0,1776
1596,2,0,0,1777
1599,2,0,0,1778
1602,2,0,0,1779
1605,2,0,0,1780
1607,2,0,0,1781
1609,2,0,0,1782
1610,2,0,0,1783
1609,2,0,0,1784
1608,2,0,0,1785
1607,2,0,0,1786
1605,2,0,0,1787
1604,2,0,0,1788
1603,2,0,0,1789
1603,2,0,0,1790
1603,2,0,0,1791
1604,2,0,0,1792
1606,2,0,0,1793
1608,2,0,0,1794
1611,2,0,0,1795
1615,2,0,0,1796
1621,2,0,0,1797
1627,2,0,0,1798
1633,2,0,0,1799
1640,2,0,0,1800
1646,2,0,0,1801
1651,2,0,0,1802
1654,2,0,0,1803
1653,2,0,0,1804
1650,2,0,0,1805
1646,2,0,0,1806
1640,2,0,0,1807
1636,2,0,0,1808
1634,2,0,0,1809
1636,2,0,0,1810
1640,2,0,0,1811
1647,2,-1,0,1812
1654,2,-1,0,1813
1659,2,-1,0,1814
1660,2,-1,0,1815
1655,2,-1,0,1816
1644,2,-1,0,1817
1628,2,-1,0,1818
1610,2,-1,0,1819
1592,2,-1,0,1820
1577,2,-1,0,1821
1566,2,-1,0,1822
1562,2,-1,0,1823
1562,2,-1,0,1824
1567,2,-1,0,1825
1574,2,-1,0,1826
1582,2,-1,0,1827
1590,2,-1,0,1828
1596,1,-1,0,1829
1600,1,-1,0,1830
1602,1,-1,0,1831
1603,1,-1,0,1832
1602,1,-1,0,1833
1600,1,-1,0,1834
1597,1,-1,0,1835
1593,1,-1,0,1836
1590,1,-1,0,1837
1587,0,-1,0,1838
1585,0,-1,0,1839
1585,0,-1,0,1840
1586,0,-1,0,1841
1588,0,-1,0,1842
1591,0,-1,0,1843
1594,0,-1,0,1844
1596,0,-1,0,1845
1597,0,0,0,1846
1597,0,0,0,1847
1595,0,0,0,1848
1592,0,0,0,1849
1589,0,0,0,1850
1585,0,0,0,1851
1583,0,0,0,1852
1581,0,0,0,1853
1582,1,0,0,1854
1585,1,0,0,1855
1589,1,0,0,1856
1594,1,0,0,1857
1598,1,0,0,1858
1602,1,0,0,1859
1604,1,0,0,1860
1605,1,1,0,1861
1605,1,1,0,1862
1604,2,1,0,1863
1602,2,1,0,1864
1601,2,2,0,1865
1601,2,3,0,1866
1601,2,4,0,1867
1603,2,6,0,1868
1604,2,8,0,1869
1607,2,10,0,1870
1609,2,11,0,1871
1612,2,13,0,1872
1615,3,13,0,1873
1618,3,13,0,1874
1622,3,13,0,1875
1627,3,14,0,1876
1632,3,15,0,1877
1636,3,20,0,1878
1639,3,28,0,1879
1641,4,39,0,1880
1642,4,54,0,1881
1641,6,71,0,1882
1639,9,91,0,1883
1637,12,111,0,1884
1635,17,129,0,1885
1633,21,144,0,1886
1632,26,156,0,1887
1630,30,164,0,1888
1630,33,168,0,1889
1629,34,169,0,1890
1629,34,169,0,1891
1631,34,170,0,1892
1634,36,174,0,1893
1639,41,183,0,1894
1646,53,199,0,1895
1655,72,223,0,1896
1665,101,256,0,1897
1676,137,297,0,1898
1687,181,343,0,1899
1695,230,394,0,1900
1701,279,446,0,1901
1705,324,496,0,1902
1705,363,541,0,1903
1703,393,581,0,1904
1700,413,611,0,1905
1694,423,633,0,1906
1688,426,646,0,1907
1681,426,652,0,1908
1674,428,653,0,1909
1654,460,650,0,1910
1642,501,652,0,1911
1629,562,659,0,1912
1614,644,674,0,1913
1600,746,696,0,1914
1586,863,725,0,1915
1575,990,759,0,1916
1566,1120,796,0,1917
1561,1245,833,0,1918
1560,1359,867,0,1919
1561,1457,898,0,1920
1565,1535,922,0,1921
1571,1592,940,0,1922
1576,1628,951,0,1923
1582,1648,958,0,1924
1586,1655,961,0,1925
1589,1655,962,0,1926
1590,1656,962,0,1927
1592,1664,962,0,1928
1593,1684,962,0,1929
1594,1721,962,0,1930
1596,1776,961,0,1931
1599,1850,958,0,1932
1603,1941,952,0,1933
1606,2045,940,0,1934
1608,2157,921,0,1935
1608,2271,897,0,1936
1606,2383,865,0,1937
1601,2488,828,0,1938
1595,2581,787,0,1939
1588,2659,745,0,1940
1580,2721,703,0,1941
1574,2768,665,0,1942
1569,2800,633,0,1943
1566,2820,606,0,1944
1564,2829,588,0,1945
1559,2833,577,0,1946
1552,2833,571,0,1947
1539,2833,569,0,1948
1519,2835,569,0,1949
1494,2841,567,0,1950
1467,2852,559,0,1951
1443,2867,544,0,1952
1433,2887,517,0,1953
1444,2910,481,0,1954
1487,2935,434,0,1955
1569,2960,379,0,1956
1691,2983,318,0,1957
1852,3005,255,0,1958
2042,3024,194,0,1959
2246,3040,137,0,1960
2445,3052,87,0,1961
2618,3063,47,0,1962
2744,3071,14,0,1963
2809,3076,-10,0,1964
2801,3080,-30,0,1965
2717,3080,-47,1,1966
2562,3075,-64,1,1967
2345,3064,-84,0,1968
2083,3045,-109,0,1969
1794,3016,-142,0,1970
1498,2980,-182,0,1971
1216,2937,-230,0,1972
963,2889,-283,0,1973
756,2841,-339,0,1974
602,2796,-394,0,1975
507,2757,-448,0,1976
470,2728,-496,0,1977
484,2708,-538,0,1978
542,2699,-570,0,1979
629,2696,-594,0,1980
733,2696,-611,0,1981
841,2694,-621,0,1982
942,2684,-628,0,1983
1032,2661,-633,0,1984
1107,2621,-640,0,1985
1170,2561,-651,0,1986
1225,2479,-667,0,1987
1278,2378,-690,0,1988
1334,2261,-720,0,1989
1396,2135,-753,0,1990
1464,2006,-790,0,1991
1536,1882,-827,0,1992
1609,1768,-860,0,1993
1676,1670,-890,0,1994
1732,1592,-914,0,1995
1773,1535,-932,0,1996
1798,1499,-944,0,1997
1808,1479,-951,0,1998
1804,1472,-954,0,1999
1791,1472,-956,0,2000
1773,1471,-955,0,2001
1754,1464,-956,0,2002
1738,1445,-956,0,2003
1726,1409,-956,0,2004
1718,1355,-955,0,2005
1715,1282,-952,0,2006
1716,1193,-945,0,2007
1718,1090,-934,0,2008
1721,979,-916,0,2009
1724,866,-891,0,2010
1725,755,-860,0,2011
1726,652,-824,0,2012
1726,559,-784,0,2013
1725,482,-744,0,2014
1726,419,-705,0,2015
1726,373,-669,0,2016
1728,340,-638,0,2017
1730,321,-613,0,2018
1733,311,-596,0,2019
1735,308,-585,0,2020
1737,307,-579,0,2021
1738,307,-578,0,2022
1738,305,-578,0,2023
1736,299,-578,0,2024
1734,288,-576,0,2025
1731,272,-568,0,2026
1728,252,-554,0,2027
1725,228,-532,0,2028
1723,202,-503,0,2029
1723,175,-468,0,2030
1724,147,-426,0,2031
1727,121,-382,0,2032
1730,97,-337,0,2033
1735,77,-293,0,2034
1740,60,-252,0,2035
1745,47,-214,0,2036
1749,38,-183,0,2037
1752,32,-158,0,2038
1753,29,-139,0,2039
1752,27,-126,0,2040
1749,26,-118,0,2041
1745,26,-114,0,2042
1740,26,-113,0,2043
1735,26,-113,0,2044
1732,26,-113,0,2045
1730,25,-112,0,2046
1730,25,-110,0,2047
1733,25,-106,0,2048
1737,24,-99,0,2049
1743,24,-91,0,2050
1749,24,-82,0,2051
1754,24,-72,0,2052
1759,24,-61,0,2053
1761,25,-50,0,2054
1762,25,-39,0,2055
1762,26,-30,0,2056
1761,26,-22,0,2057
1761,26,-15,0,2058
1761,26,-10,0,2059
1763,26,-6,0,2060
1766,26,-4,0,2061
1771,26,-4,0,2062
1777,26,-3,0,2063
1784,25,-3,0,2064
1791,25,-4,0,2065
1798,25,-4,0,2066
1804,25,-4,0,2067
1808,24,-5,0,2068
1811,24,-5,0,2069
1811,24,-5,0,2070
1810,24,-5,0,2071
1808,24,-4,0,2072
1805,24,-4,0,2073
1803,24,-4,0,2074
1800,24,-4,0,2075
1799,23,-4,0,2076
1800,23,-4,0,2077
1801,22,-4,0,2078
1804,21,-5,0,2079
1807,20,-5,0,2080
1809,19,-5,0,2081
1811,18,-5,0,2082
1812,17,-5,0,2083
1812,16,-5,0,2084
1811,15,-5,0,2085
1810,14,-5,0,2086
1810,14,-4,0,2087
1810,14,-4,0,2088
1811,14,-4,0,2089
1813,14,-4,0,2090
1814,14,-4,0,2091
1816,15,-4,0,2092
1815,15,-4,0,2093
1813,15,-4,0,2094
1808,15,-4,0,2095
1801,15,-4,0,2096
1792,15,-4,0,2097
1783,15,-4,0,2098
1775,15,-4,0,2099
1767,15,-4,0,2100
1761,15,-3,0,2101
1756,15,-3,0,2102
1751,15,-2,0,2103
1747,15,-2,0,2104
1742,15,-2,0,2105
1735,15,-2,0,2106
1727,15,-2,0,2107
1717,15,-1,0,2108
1705,15,-1,0,2109
1692,15,-1,0,2110
1679,15,-1,0,2111
1665,15,-1,0,2112
1652,15,-1,0,2113
1638,15,-2,0,2114
1625,15,-2,0,2115
1611,15,-2,0,2116
1599,15,-2,0,2117
1587,15,-2,0,2118
1576,15,-2,0,2119
1566,15,-2,0,2120
1558,14,-2,0,2121
1550,14,-2,0,2122
1544,14,-2,0,2123
1537,13,-2,0,2124
1532,13,-2,0,2125
1526,13,-2,0,2126
1520,12,-2,0,2127
1515,12,-2,0,2128
1509,12,-2,0,2129
1505,12,-2,0,2130
1501,11,-2,0,2131
1498,11,-3,0,2132
1496,11,-3,0,2133
1495,10,-3,0,2134
1494,10,-3,0,2135
1494,10,-3,0,2136
1494,10,-3,0,2137
1493,10,-3,0,2138
1493,10,-4,0,2139
1494,10,-4,0,2140
1494,10,-4,0,2141
1496,10,-4,0,2142
1498,10,-4,0,2143
1501,10,-4,0,2144
1505,10,-4,0,2145
1509,10,-4,0,2146
1513,10,-4,0,2147
1517,10,-4,0,2148
1520,9,-4,0,2149
1521,9,-4,0,2150
1521,9,-4,0,2151
1520,9,-4,0,2152
1518,8,-4,0,2153
1515,8,-4,0,2154
1512,8,-4,0,2155
1509,7,-4,0,2156
1507,7,-3,0,2157
1507,7,-3,0,2158
1508,6,-3,0,2159
1510,6,-3,0,2160
1514,6,-3,0,2161
1518,5,-3,0,2162
1523,5,-3,0,2163
1527,5,-3,0,2164
1532,4,-3,0,2165
1536,4,-3,0,2166
1539,4,-3,0,2167
1542,4,-3,0,2168
1545,4,-3,0,2169
1547,3,-3,0,2170
1549,3,-3,0,2171
1551,3,-3,0,2172
1552,3,-3,0,2173
1553,3,-3,0,2174
1554,3,-3,0,2175
1554,3,-2,0,2176
1554,3,-2,0,2177
1554,3,-2,0,2178
1554,3,-2,0,2179
1553,3,-2,0,2180
1553,3,-2,0,2181
1553,3,-1,0,2182
1553,3,-1,0,2183
1553,3,-1,0,2184
1553,3,-1,0,2185
1553,3,-1,0,2186
1553,3,-1,0,2187
1553,3,0,0,2188
1553,3,0,0,2189
1554,3,0,0,2190
1554,3,0,0,2191
1555,3,0,0,2192
1556,3,0,0,2193
1557,4,0,0,2194
1558,4,0,0,2195
1559,4,0,0,2196
1559,4,0,0,2197
1559,4,0,0,2198
1559,4,-1,0,2199
1560,4,-1,0,2200
1560,4,-1,0,2201
1561,4,-1,0,2202
1562,4,-1,0,2203
1564,4,-1,0,2204
1564,4,-1,0,2205
1564,4,-1,0,2206
1564,4,-1,0,2207
1563,4,-1,0,2208
1561,4,-1,0,2209
1560,3,-1,0,2210
1559,3,-1,0,2211
1560,3,-1,0,2212
1561,3,-1,0,2213
1564,3,-1,0,2214
1568,3,-1,0,2215
1572,2,-1,0,2216
1575,2,-1,0,2217
1579,2,-1,0,2218
1581,2,-1,0,2219
1581,2,-1,0,2220
1580,2,-1,0,2221
1578,2,-1,0,2222
1576,2,-1,0,2223
1574,2,-1,0,2224
1572,2,-1,0,2225
1571,2,-1,0,2226
1572,2,-1,0,2227
1573,2,-1,0,2228
1575,2,-1,0,2229
1577,2,-1,0,2230
1579,2,-1,0,2231
1580,2,-1,0,2232
1580,2,-1,0,2233
1580,2,-1,0,2234
1579,2,-1,0,2235
1578,2,0,0,2236
1576,2,0,0,2237
1576,2,0,0,2238
1575,2,0,0,2239
1575,2,0,0,2240
1575,2,0,0,2241
1576,2,0,0,2242
1577,2,1,0,2243
1577,2,1,0,2244
1578,2,1,0,2245
1579,2,1,0,2246
1579,2,1,0,2247
1580,2,1,0,2248
1581,2,1,0,2249
1582,2,1,0,2250
1583,2,1,0,2251
1585,2,1,0,2252
1586,3,1,0,2253
1587,3,1,0,2254
1588,3,1,0,2255
1589,3,1,0,2256
1589,4,1,0,2257
1589,4,1,0,2258
1589,4,1,0,2259
1589,5,1,0,2260
1590,5,1,0,2261
1591,5,1,0,2262
1592,6,1,0,2263
1594,6,1,0,2264
1596,6,1,0,2265
1598,7,1,0,2266
1599,7,1,0,2267
1600,7,1,0,2268
1600,7,1,0,2269
1599,7,1,0,2270
1598,7,1,0,2271
1596,6,1,0,2272
1595,6,1,0,2273
1595,6,1,0,2274
1595,6,1,0,2275
1597,6,0,0,2276
1599,6,0,0,2277
1603,6,0,0,2278
1606,6,0,0,2279
1608,6,0,0,2280
1609,5,0,0,2281
1610,5,0,0,2282
1609,5,0,0,2283
1608,5,0,0,2284
1607,5,0,0,2285
1605,5,0,0,2286
1604,5,0,0,2287
1604,5,0,0,2288
1603,5,-1,0,2289
1604,5,-1,0,2290
1604,5,0,0,2291
1606,5,0,0,2292
1608,5,0,0,2293
1611,5,0,0,2294
1615,5,0,0,2295
1620,5,0,0,2296
1626,5,0,0,2297
1633,5,0,0,2298
1640,5,0,0,2299
1646,5,0,0,2300
1651,5,0,0,2301
1653,5,0,0,2302
1653,6,0,0,2303
1650,6,1,0,2304
1645,6,1,0,2305
1640,6,1,0,2306
1636,6,1,0,2307
1635,7,1,0,2308
1637,7,1,0,2309
1642,7,1,0,2310
1649,7,1,0,2311
1656,7,1,0,2312
1660,8,0,0,2313
1660,8,0,0,2314
1654,8,0,0,2315
1642,8,0,0,2316
1626,8,0,0,2317
1607,8,0,0,2318
1589,8,0,0,2319
1575,8,0,0,2320
1565,8,0,0,2321
1560,8,0,0,2322
1561,8,-1,0,2323
1566,8,-1,0,2324
1573,8,-1,0,2325
1581,8,-1,0,2326
1589,8,-1,0,2327
1594,8,-1,0,2328
1598,8,-1,0,2329
1600,7,-1,0,2330
1601,7,-2,0,2331
1600,7,-2,0,2332
1598,6,-2,0,2333
1595,6,-2,0,2334
1592,6,-2,0,2335
1589,5,-2,0,2336
1586,5,-2,0,2337
1584,5,-2,0,2338
1584,5,-2,0,2339
1585,4,-2,0,2340
1587,4,-2,0,2341
1590,4,-1,0,2342
1593,4,-1,0,2343
1595,4,-1,0,2344
1597,4,-1,0,2345
1597,4,-1,0,2346
1595,4,-1,0,2347
1592,4,-1,0,2348
1588,4,-1,0,2349
1585,4,-1,0,2350
1582,4,-1,0,2351
1581,4,-1,0,2352
1582,4,0,0,2353
1584,5,0,0,2354
1588,5,0,0,2355
1593,5,1,0,2356
1597,5,1,0,2357
1601,5,1,0,2358
1603,6,1,0,2359
1604,6,1,0,2360
1604,6,1,0,2361
1603,6,1,0,2362
1602,6,1,0,2363
1601,6,2,0,2364
1601,6,3,0,2365
1601,6,3,0,2366
1602,6,5,0,2367
1604,6,7,0,2368
1606,7,9,0,2369
1609,7,10,0,2370
1612,8,11,0,2371
1615,8,11,0,2372
1619,9,11,0,2373
1623,9,11,0,2374
1628,9,12,0,2375
1633,9,15,0,2376
1637,9,19,0,2377
1640,9,27,0,2378
1642,9,39,0,2379
1642,9,54,0,2380
1641,10,72,0,2381
1640,12,92,0,2382
1637,14,112,0,2383
1635,18,131,0,2384
1633,22,147,0,2385
1631,27,159,0,2386
1630,30,167,0,2387
1629,33,170,0,2388
1629,34,171,0,2389
1630,34,171,0,2390
1631,34,173,0,2391
1635,36,176,0,2392
1640,42,186,0,2393
1647,54,202,0,2394
1656,74,227,0,2395
1666,104,261,0,2396
1677,142,303,0,2397
1687,187,350,0,2398
1695,238,402,0,2399
1701,288,455,0,2400
1704,335,506,0,2401
1704,374,553,0,2402
1702,404,593,0,2403
1698,424,624,0,2404
1692,433,647,0,2405
1687,436,660,0,2406
1680,436,666,0,2407
1673,439,667,0,2408
1655,473,664,0,2409
1644,515,666,0,2410
1630,578,675,0,2411
1616,662,690,0,2412
1601,767,712,0,2413
1587,886,742,0,2414
1575,1016,777,0,2415
1566,1148,814,0,2416
1561,1276,850,0,2417
1559,1392,884,0,2418
1561,1492,914,0,2419
1565,1572,937,0,2420
1571,1630,954,0,2421
1576,1666,965,0,2422
1582,1684,972,0,2423
1586,1691,974,0,2424
1589,1691,975,0,2425
1590,1692,974,0,2426
1591,1700,973,0,2427
1592,1722,973,0,2428
1594,1760,973,0,2429
1597,1816,972,0,2430
1600,1892,969,0,2431
1603,1985,962,0,2432
1606,2090,950,0,2433
1609,2201,932,0,2434
1609,2316,907,0,2435
1607,2428,876,0,2436
1602,2532,839,0,2437
1596,2625,798,0,2438
1588,2703,756,0,2439
1581,2766,715,0,2440
1575,2811,677,0,2441
1570,2842,645,0,2442
1567,2860,619,0,2443
1565,2868,600,0,2444
1560,2871,589,0,2445
1552,2871,584,0,2446
1538,2871,583,0,2447
1518,2873,583,0,2448
1492,2880,581,0,2449
1465,2892,573,0,2450
1442,2910,555,0,2451
1433,2932,528,0,2452
1446,2958,491,0,2453
1491,2986,443,0,2454
1575,3013,385,0,2455
1699,3040,324,0,2456
1861,3065,261,0,2457
2051,3087,199,0,2458
2254,3105,143,0,2459
2451,3120,94,0,2460
2622,3131,53,0,2461
2748,3140,20,0,2462
2813,3146,-5,0,2463
2807,3150,-24,0,2464
2726,3150,-40,1,2465
2576,3145,-57,1,2466
2364,3133,-77,0,2467
2106,3112,-103,0,2468
1820,3082,-137,0,2469
1525,3045,-178,0,2470
1241,3000,-227,0,2471
985,2950,-281,0,2472
772,2901,-339,0,2473
612,2854,-397,0,2474
512,2816,-452,0,2475
471,2787,-502,0,2476
484,2768,-546,0,2477
540,2758,-579,0,2478
628,2755,-605,0,2479
733,2755,-622,0,2480
842,2753,-634,0,2481
944,2743,-641,0,2482
1034,2719,-647,0,2483
1109,2677,-655,0,2484
1172,2614,-667,0,2485
1227,2530,-684,0,2486
1280,2426,-708,0,2487
1336,2307,-738,0,2488
1399,2178,-773,0,2489
1468,2046,-809,0,2490
1542,1919,-845,0,2491
1614,1802,-878,0,2492
1680,1703,-908,0,2493
1735,1623,-931,0,2494
1776,1566,-948,0,2495
1800,1529,-960,0,2496
1808,1511,-966,0,2497
1804,1504,-968,0,2498
1791,1504,-969,0,2499
1773,1503,-969,0,2500
1754,1495,-969,0,2501
1739,1474,-968,0,2502
1727,1437,-969,0,2503
1720,1381,-968,0,2504
1717,1306,-965,0,2505
1718,1214,-958,0,2506
1720,1111,-946,0,2507
1723,1001,-928,0,2508
1725,888,-904,0,2509
1726,777,-873,0,2510
1726,673,-836,0,2511
1725,581,-797,0,2512
1724,503,-756,0,2513
1724,441,-717,0,2514
1725,396,-680,0,2515
1727,365,-650,0,2516
1730,346,-625,0,2517
1733,337,-608,0,2518
1736,335,-597,0,2519
1738,334,-592,0,2520
1739,334,-591,0,2521
1738,331,-592,0,2522
1737,324,-592,0,2523
1734,312,-589,0,2524
1730,294,-580,0,2525
1727,271,-566,0,2526
1725,245,-543,0,2527
1723,217,-513,0,2528
1722,187,-476,0,2529
1724,157,-436,0,2530
1726,128,-392,0,2531
1730,102,-347,0,2532
1735,80,-302,0,2533
1740,61,-261,0,2534
1745,47,-224,0,2535
1749,37,-193,0,2536
1752,31,-168,0,2537
1753,27,-150,0,2538
1751,25,-137,0,2539
1748,24,-129,0,2540
1744,24,-126,0,2541
1739,24,-124,0,2542
1734,24,-124,0,2543
1731,24,-124,0,2544
1729,24,-123,0,2545
1729,24,-120,0,2546
1732,23,-116,0,2547
1737,23,-108,0,2548
1743,22,-99,0,2549
1749,22,-89,0,2550
1755,22,-78,0,2551
1759,22,-66,0,2552
1762,22,-54,0,2553
1763,23,-42,0,2554
1762,23,-32,0,2555
1761,24,-23,0,2556
1760,24,-15,0,2557
1760,24,-10,0,2558
1762,25,-6,0,2559
1766,25,-4,0,2560
1771,25,-2,0,2561
1778,25,-2,0,2562
1785,25,-2,0,2563
1792,24,-3,0,2564
1799,24,-3,0,2565
1804,24,-4,0,2566
1808,24,-4,0,2567
1811,24,-4,0,2568
1811,24,-4,0,2569
1810,24,-4,0,2570
1808,24,-4,0,2571
1805,24,-4,0,2572
1803,24,-4,0,2573
1801,24,-4,0,2574
1800,24,-4,0,2575
1800,23,-4,0,2576
1802,23,-4,0,2577
1804,22,-4,0,2578
1807,21,-4,0,2579
1810,19,-4,0,2580
1811,18,-4,0,2581
1812,17,-4,0,2582
1812,16,-4,0,2583
1811,15,-4,0,2584
1810,14,-4,0,2585
1810,14,-4,0,2586
1810,14,-4,0,2587
1811,14,-4,0,2588
1812,13,-4,0,2589
1814,13,-4,0,2590
1815,14,-4,0,2591
1815,14,-4,0,2592
1812,14,-4,0,2593
1808,14,-4,0,2594
1801,14,-4,0,2595
1792,14,-4,0,2596
1783,14,-4,0,2597
1775,15,-4,0,2598
1767,15,-4,0,2599
1760,15,-4,0,2600
1755,15,-3,0,2601
1751,15,-3,0,2602
1746,15,-2,0,2603
1741,16,-2,0,2604
1734,16,-2,0,2605
1726,16,-1,0,2606
1716,16,-1,0,2607
1704,16,-1,0,2608
1692,16,-1,0,2609
1679,16,-1,0,2610
1666,16,-1,0,2611
1652,16,-1,0,2612
1639,16,-1,0,2613
1625,16,-2,0,2614
1612,16,-2,0,2615
1599,15,-2,0,2616
1588,15,-2,0,2617
1577,15,-2,0,2618
1567,15,-2,0,2619
1558,15,-2,0,2620
1549,14,-3,0,2621
1542,14,-3,0,2622
1536,14,-3,0,2623
1529,14,-3,0,2624
1523,13,-3,0,2625
1518,13,-3,0,2626
1513,12,-3,0,2627
1508,12,-3,0,2628
1504,11,-3,0,2629
1500,11,-3,0,2630
1498,11,-3,0,2631
1496,10,-3,0,2632
1495,10,-3,0,2633
1495,10,-3,0,2634
1494,9,-3,0,2635
1494,9,-3,0,2636
1494,9,-3,0,2637
1494,9,-3,0,2638
1494,9,-3,0,2639
1494,9,-3,0,2640
1495,9,-3,0,2641
1497,9,-3,0,2642
1500,9,-3,0,2643
1503,10,-3,0,2644
1507,10,-3,0,2645
1512,10,-3,0,2646
1515,10,-3,0,2647
1519,10,-3,0,2648
1520,10,-3,0,2649
1521,10,-3,0,2650
1520,9,-3,0,2651
1518,9,-2,0,2652
1515,9,-3,0,2653
1511,9,-3,0,2654
1509,9,-2,0,2655
1507,8,-2,0,2656
1507,8,-2,0,2657
1508,8,-2,0,2658
1511,8,-2,0,2659
1514,8,-2,0,2660
1519,7,-2,0,2661
1524,7,-2,0,2662
1528,7,-2,0,2663
1533,7,-2,0,2664
1536,7,-2,0,2665
1540,6,-2,0,2666
1542,6,-3,0,2667
1545,6,-3,0,2668
1547,6,-3,0,2669
1549,5,-3,0,2670
1550,5,-3,0,2671
1552,5,-3,0,2672
1552,5,-3,0,2673
1553,5,-2,0,2674
1553,4,-2,0,2675
1553,4,-2,0,2676
1553,4,-2,0,2677
1553,4,-2,0,2678
1552,4,-2,0,2679
1552,4,-2,0,2680
1552,4,-2,0,2681
1552,4,-2,0,2682
1552,4,-2,0,2683
1552,4,-2,0,2684
1552,4,-2,0,2685
1552,4,-2,0,2686
1552,4,-2,0,2687
1553,4,-2,0,2688
1553,4,-2,0,2689
1554,4,-2,0,2690
1555,4,-2,0,2691
1556,4,-2,0,2692
1558,4,-1,0,2693
1559,4,-2,0,2694
1560,4,-2,0,2695
1560,4,-2,0,2696
1560,4,-2,0,2697
1560,4,-1,0,2698
1561,4,-2,0,2699
1561,4,-2,0,2700
1562,4,-2,0,2701
1563,4,-2,0,2702
1564,4,-2,0,2703
1565,4,-2,0,2704
1565,3,-2,0,2705
1564,3,-2,0,2706
1563,3,-2,0,2707
1562,3,-2,0,2708
1561,3,-2,0,2709
1560,3,-2,0,2710
1560,2,-2,0,2711
1562,2,-2,0,2712
1564,2,-2,0,2713
1568,2,-2,0,2714
1572,2,-2,0,2715
1576,1,-2,0,2716
1579,1,-2,0,2717
1581,1,-2,0,2718
1582,1,-2,0,2719
1581,1,-2,0,2720
1579,0,-2,0,2721
1577,0,-2,0,2722
1574,0,-2,0,2723
1572,0,-2,0,2724
1572,0,-2,0,2725
1572,0,-2,0,2726
1573,0,-2,0,2727
1575,0,-2,0,2728
1577,0,-2,0,2729
1579,0,-2,0,2730
1580,0,-2,0,2731
1580,0,-2,0,2732
1580,0,-2,0,2733
1579,0,-1,0,2734
1578,0,-1,0,2735
1577,0,-1,0,2736
1576,0,-1,0,2737
1575,0,-1,0,2738
1575,0,0,0,2739
1575,0,0,0,2740
1576,0,0,0,2741
1576,0,0,0,2742
1577,0,0,0,2743
1577,0,0,0,2744
1578,0,0,0,2745
1578,0,0,0,2746
1579,0,0,0,2747
1580,0,0,0,2748
1581,0,0,0,2749
1583,0,0,0,2750
1584,0,0,0,2751
1586,0,0,0,2752
1588,1,0,0,2753
1589,1,0,0,2754
1589,1,0,0,2755
1590,1,0,0,2756
1590,1,0,0,2757
1589,1,0,0,2758
1590,1,0,0,2759
1590,1,0,0,2760
1591,1,0,0,2761
1592,1,0,0,2762
1594,1,0,0,2763
1596,1,0,0,2764
1598,1,0,0,2765
1599,1,0,0,2766
1600,1,0,0,2767
1600,1,0,0,2768
1599,1,0,0,2769
1598,1,0,0,2770
1597,1,0,0,2771
1595,1,0,0,2772
1595,1,0,0,2773
1595,1,0,0,2774
1597,1,0,0,2775
1599,1,0,0,2776
1602,1,0,0,2777
1605,1,0,0,2778
1607,1,0,0,2779
1609,1,0,0,2780
1609,1,0,0,2781
1609,1,0,0,2782
1608,1,0,0,2783
1607,1,0,0,2784
1605,1,0,0,2785
1604,1,0,0,2786
1603,1,0,0,2787
1603,1,0,0,2788
1603,1,0,0,2789
1604,1,0,0,2790
1605,1,0,0,2791
1608,1,0,0,2792
1611,1,0,0,2793
1615,1,0,0,2794
1620,1,0,0,2795
1627,1,0,0,2796
1633,1,0,0,2797
1640,1,0,0,2798
1646,1,0,0,2799
1651,1,0,0,2800
1653,1,0,0,2801
1653,1,0,0,2802
1650,1,0,0,2803
1645,1,0,0,2804
1640,1,0,0,2805
1636,1,0,0,2806
1634,1,0,0,2807
1636,1,0,0,2808
1641,1,0,0,2809
1648,1,0,0,2810
1656,1,-1,0,2811
1661,1,-1,0,2812
1662,1,-1,0,2813
1657,1,-1,0,2814
1646,1,-1,0,2815
1630,1,-1,0,2816
1611,1,0,0,2817
1593,1,0,0,2818
1577,1,0,0,2819
1566,1,0,0,2820
1561,1,0,0,2821
1561,1,0,0,2822
1565,1,0,0,2823
1572,1,0,0,2824
1580,1,0,0,2825
1588,1,0,0,2826
1594,1,0,0,2827
1598,0,0,0,2828
1601,0,0,0,2829
1601,0,0,0,2830
1600,0,0,0,2831
1598,0,0,0,2832
1595,0,0,0,2833
1592,1,0,0,2834
1589,1,0,0,2835
1586,1,0,0,2836
1584,1,0,0,2837
1584,1,0,0,2838
1584,1,0,0,2839
1586,1,0,0,2840
1589,1,0,0,2841
1592,1,0,0,2842
1595,1,0,0,2843
1596,1,0,0,2844
1596,1,0,0,2845
1595,1,0,0,2846
1592,1,0,0,2847
1588,1,0,0,2848
1584,1,0,0,2849
1582,1,0,0,2850
1581,1,1,0,2851
1581,1,1,0,2852
1584,2,1,0,2853
1588,2,1,0,2854
1593,2,1,0,2855
1597,2,1,0,2856
1601,2,1,0,2857
1604,2,1,0,2858
1605,2,1,0,2859
1604,2,1,0,2860
1603,2,1,0,2861
1601,2,1,0,2862
1600,2,2,0,2863
1599,2,3,0,2864
1599,3,4,0,2865
1600,3,5,0,2866
1603,3,7,0,2867
1605,3,9,0,2868
1608,3,10,0,2869
1611,3,11,0,2870
1614,4,12,0,2871
1618,4,12,0,2872
1622,4,12,0,2873
1627,4,13,0,2874
1631,4,15,0,2875
1636,4,19,0,2876
1639,5,27,0,2877
1642,5,38,0,2878
1643,5,52,0,2879
1643,7,69,0,2880
1641,9,88,0,2881
1639,12,107,0,2882
1636,16,124,0,2883
1634,20,139,0,2884
1632,25,151,0,2885
1630,28,158,0,2886
1629,30,162,0,2887
1628,32,163,0,2888
1629,32,163,0,2889
1631,32,164,0,2890
1634,34,169,0,2891
1640,40,179,0,2892
1647,52,196,0,2893
1656,71,222,0,2894
1666,99,256,0,2895
1676,134,299,0,2896
1686,176,348,0,2897
1694,223,401,0,2898
1700,270,455,0,2899
1703,314,506,0,2900
1704,352,554,0,2901
1702,381,595,0,2902
1698,399,626,0,2903
1693,409,648,0,2904
1687,411,661,0,2905
1680,411,667,0,2906
1673,414,668,0,2907
1654,452,666,0,2908
1642,495,668,0,2909
1629,560,676,0,2910
1615,646,691,0,2911
1600,753,714,0,2912
1587,875,743,0,2913
1575,1007,778,0,2914
1566,1142,816,0,2915
1561,1272,854,0,2916
1560,1391,890,0,2917
1562,1493,921,0,2918
1566,1574,948,0,2919
1572,1631,967,0,2920
1578,1667,980,0,2921
1583,1686,988,0,2922
1588,1692,992,0,2923
1590,1692,994,0,2924
1592,1694,995,0,2925
1592,1702,995,0,2926
1593,1723,996,0,2927
1594,1761,996,0,2928
1597,1818,995,0,2929
1600,1894,991,0,2930
1604,1987,983,0,2931
1608,2094,969,0,2932
1610,2208,949,0,2933
1611,2325,923,0,2934
1609,2439,889,0,2935
1605,2547,849,0,2936
1599,2642,806,0,2937
1592,2722,761,0,2938
1585,2786,717,0,2939
1579,2834,677,0,2940
1574,2868,643,0,2941
1570,2888,615,0,2942
1567,2899,596,0,2943
1562,2902,585,0,2944
1554,2903,579,0,2945
1540,2903,578,0,2946
1520,2905,578,0,2947
1495,2910,575,0,2948
1468,2920,567,0,2949
1446,2934,551,0,2950
1436,2954,525,0,2951
1448,2976,488,0,2952
1491,2999,441,0,2953
1572,3023,385,0,2954
1694,3046,324,0,2955
1853,3067,261,0,2956
2041,3086,199,0,2957
2244,3101,142,0,2958
2442,3113,91,0,2959
2615,3123,50,0,2960
2743,3130,17,0,2961
2811,3136,-8,0,2962
2806,3139,-29,0,2963
2727,3139,-47,1,2964
2575,3134,-66,1,2965
2362,3122,-87,0,2966
2102,3102,-114,0,2967
1813,3075,-149,0,2968
1516,3040,-191,0,2969
1231,2998,-240,0,2970
975,2951,-295,0,2971
763,2905,-353,0,2972
606,2861,-410,0,2973
508,2824,-466,0,2974
470,2795,-515,0,2975
485,2777,-556,0,2976
544,2768,-589,0,2977
633,2766,-612,0,2978
738,2766,-628,0,2979
847,2763,-638,0,2980
948,2751,-644,0,2981
1036,2725,-650,0,2982
1109,2682,-657,0,2983
1170,2618,-668,0,2984
1223,2532,-685,0,2985
1274,2426,-708,0,2986
1329,2305,-738,0,2987
1391,2174,-773,0,2988
1459,2039,-810,0,2989
1532,1910,-848,0,2990
1605,1791,-883,0,2991
1673,1689,-914,0,2992
1729,1609,-940,0,2993
1771,1552,-959,0,2994
1797,1516,-972,0,2995
1807,1497,-980,0,2996
1803,1491,-985,0,2997
1790,1491,-987,0,2998
1772,1490,-988,0,2999
1754,1482,-989,0,3000
1737,1462,-989,0,3001
1725,1425,-990,0,3002
1718,1369,-988,0,3003
1716,1294,-984,0,3004
1717,1203,-976,0,3005
1719,1097,-963,0,3006
1723,984,-943,0,3007
1725,868,-916,0,3008
1726,755,-883,0,3009
1726,649,-845,0,3010
1726,554,-803,0,3011
1725,475,-759,0,3012
1724,411,-718,0,3013
1725,362,-679,0,3014
1726,328,-646,0,3015
1729,308,-620,0,3016
1732,297,-602,0,3017
1735,294,-591,0,3018
1737,293,-586,0,3019
1738,293,-585,0,3020
1738,291,-586,0,3021
1737,286,-586,0,3022
1734,276,-582,0,3023
1731,261,-574,0,3024
1728,242,-560,0,3025
1726,219,-537,0,3026
1724,194,-507,0,3027
1724,168,-471,0,3028
1725,142,-429,0,3029
1728,117,-384,0,3030
1732,94,-337,0,3031
1737,75,-292,0,3032
1742,59,-250,0,3033
1746,47,-211,0,3034
1750,39,-180,0,3035
1752,34,-154,0,3036
1753,30,-134,0,3037
1752,28,-120,0,3038
1749,27,-112,0,3039
1745,27,-108,0,3040
1741,27,-107,0,3041
1737,27,-106,0,3042
1733,27,-107,0,3043
1732,27,-106,0,3044
1732,27,-104,0,3045
1735,26,-100,0,3046
1739,26,-94,0,3047
1744,26,-87,0,3048
1750,26,-78,0,3049
1756,26,-68,0,3050
1760,27,-57,0,3051
1763,27,-47,0,3052
1763,27,-37,0,3053
1763,28,-28,0,3054
1762,28,-20,0,3055
1762,28,-14,0,3056
1762,28,-10,0,3057
1764,28,-6,0,3058
1767,28,-5,0,3059
1773,27,-4,0,3060
1779,27,-3,0,3061
1786,27,-4,0,3062
1794,26,-4,0,3063
1800,26,-4,0,3064
1806,26,-5,0,3065
1810,26,-5,0,3066
1812,26,-5,0,3067
1812,26,-6,0,3068
1811,26,-5,0,3069
1808,26,-5,0,3070
1805,26,-5,0,3071
1803,25,-5,0,3072
1800,25,-5,0,3073
1800,24,-6,0,3074
1800,24,-6,0,3075
1802,23,-6,0,3076
1804,22,-6,0,3077
1807,21,-6,0,3078
1810,19,-6,0,3079
1812,18,-6,0,3080
1813,17,-6,0,3081
1812,16,-6,0,3082
1812,15,-5,0,3083
1811,15,-5,0,3084
1810,14,-5,0,3085
1810,14,-5,0,3086
1812,14,-5,0,3087
1813,14,-5,0,3088
1815,14,-5,0,3089
1816,14,-5,0,3090
1815,14,-5,0,3091
1812,14,-5,0,3092
1807,14,-5,0,3093
1800,15,-5,0,3094
1791,15,-4,0,3095
1782,15,-4,0,3096
1774,15,-4,0,3097
1766,15,-4,0,3098
1760,15,-4,0,3099
1756,15,-3,0,3100
1752,15,-3,0,3101
1748,15,-2,0,3102
1742,15,-2,0,3103
1736,15,-2,0,3104
1728,15,-1,0,3105
1718,15,-1,0,3106
1706,15,-1,0,3107
1693,15,-1,0,3108
1680,15,-1,0,3109
1666,15,-1,0,3110
1652,15,-2,0,3111
1638,15,-2,0,3112
1625,15,-2,0,3113
1612,15,-2,0,3114
1599,15,-2,0,3115
1588,15,-2,0,3116
1577,15,-2,0,3117
1567,15,-3,0,3118
1558,14,-3,0,3119
1549,14,-3,0,3120
1542,14,-3,0,3121
1535,14,-3,0,3122
1529,13,-3,0,3123
1523,13,-3,0,3124
1517,13,-3,0,3125
1512,12,-3,0,3126
1508,12,-3,0,3127
1504,11,-3,0,3128
1500,11,-3,0,3129
1498,11,-3,0,3130
1496,10,-3,0,3131
1495,10,-3,0,3132
1495,10,-3,0,3133
1495,10,-3,0,3134
1494,9,-3,0,3135
1494,9,-3,0,3136
1494,9,-3,0,3137
1494,9,-3,0,3138
1494,8,-3,0,3139
1495,8,-4,0,3140
1497,8,-4,0,3141
1499,8,-3,0,3142
1503,9,-3,0,3143
1507,9,-3,0,3144
1511,9,-4,0,3145
1515,9,-3,0,3146
1519,9,-3,0,3147
1521,9,-3,0,3148
1521,9,-3,0,3149
1520,9,-3,0,3150
1518,9,-3,0,3151
1515,8,-3,0,3152
1511,8,-3,0,3153
1508,8,-3,0,3154
1506,8,-3,0,3155
1506,8,-3,0,3156
1507,7,-3,0,3157
1509,7,-2,0,3158
1513,7,-2,0,3159
1518,7,-2,0,3160
1522,7,-2,0,3161
1527,6,-2,0,3162
1531,6,-2,0,3163
1535,6,-2,0,3164
1539,6,-2,0,3165
1542,6,-2,0,3166
1544,5,-2,0,3167
1547,5,-2,0,3168
1548,5,-2,0,3169
1550,5,-2,0,3170
1551,4,-2,0,3171
1552,4,-2,0,3172
1553,4,-2,0,3173
1553,4,-2,0,3174
1553,4,-2,0,3175
1553,4,-2,0,3176
1552,4,-2,0,3177
1552,4,-2,0,3178
1552,4,-2,0,3179
1552,4,-2,0,3180
1552,4,-2,0,3181
1552,4,-2,0,3182
1552,4,-2,0,3183
1552,4,-2,0,3184
1552,4,-1,0,3185
1552,4,-1,0,3186
1552,4,-1,0,3187
1553,4,-1,0,3188
1554,4,-2,0,3189
1555,4,-1,0,3190
1556,4,-1,0,3191
1557,4,-1,0,3192
1558,4,-2,0,3193
1559,4,-1,0,3194
1559,4,-1,0,3195
1560,4,-1,0,3196
1560,4,-1,0,3197
1560,4,-2,0,3198
1561,4,-2,0,3199
1562,4,-2,0,3200
1563,4,-2,0,3201
1564,4,-2,0,3202
1564,4,-2,0,3203
1564,4,-2,0,3204
1564,4,-2,0,3205
1563,3,-2,0,3206
1562,3,-2,0,3207
1561,3,-2,0,3208
1560,3,-2,0,3209
1560,2,-2,0,3210
1561,2,-2,0,3211
1564,2,-2,0,3212
1567,2,-2,0,3213
1571,2,-2,0,3214
1575,1,-2,0,3215
1578,1,-2,0,3216
1580,1,-2,0,3217
1581,1,-2,0,3218
1581,1,-2,0,3219
1579,1,-2,0,3220
1577,0,-2,0,3221
1575,0,-2,0,3222
1573,0,-2,0,3223
1572,0,-2,0,3224
1572,0,-2,0,3225
1573,0,-2,0,3226
1575,0,-2,0,3227
1577,0,-2,0,3228
1579,0,-2,0,3229
1581,0,-2,0,3230
1582,0,-2,0,3231
1582,0,-2,0,3232
1581,0,-1,0,3233
1580,0,-1,0,3234
1578,0,-1,0,3235
1577,0,-1,0,3236
1576,0,-1,0,3237
1575,0,0,0,3238
1575,0,0,0,3239
1576,0,0,0,3240
1577,0,0,0,3241
1577,0,0,0,3242
1578,0,0,0,3243
1578,0,0,0,3244
1579,0,1,0,3245
1579,0,1,0,3246
1580,0,1,0,3247
1581,0,1,0,3248
1582,0,1,0,3249
1584,0,1,0,3250
1585,1,1,0,3251
1587,1,1,0,3252
1588,1,1,0,3253
1589,1,1,0,3254
1590,1,1,0,3255
1590,1,1,0,3256
1590,2,1,0,3257
1590,2,1,0,3258
1591,2,1,0,3259
1592,2,1,0,3260
1593,2,1,0,3261
1594,3,1,0,3262
1596,3,1,0,3263
1598,3,1,0,3264
1599,3,1,0,3265
1600,3,1,0,3266
1600,3,1,0,3267
1599,4,1,0,3268
1597,4,1,0,3269
1595,4,1,0,3270
1594,4,1,0,3271
1594,4,1,0,3272
1594,4,1,0,3273
1596,4,1,0,3274
1599,4,1,0,3275
1602,4,1,0,3276
1605,4,1,0,3277
1608,4,1,0,3278
1609,4,1,0,3279
1610,4,0,0,3280
1609,4,0,0,3281
1608,4,1,0,3282
1607,4,1,0,3283
1605,4,1,0,3284
1604,4,1,0,3285
1604,4,1,0,3286
1604,4,1,0,3287
1604,4,1,0,3288
1606,4,1,0,3289
1607,4,1,0,3290
1610,4,1,0,3291
1613,4,1,0,3292
1617,4,1,0,3293
1622,4,1,0,3294
1627,4,1,0,3295
1634,4,1,0,3296
1641,4,1,0,3297
1647,4,1,0,3298
1651,5,1,0,3299
1654,5,1,0,3300
1653,5,1,0,3301
1650,6,1,0,3302
1645,6,1,0,3303
1640,6,1,0,3304
1636,7,2,0,3305
1634,7,2,0,3306
1636,7,2,0,3307
1641,8,2,0,3308
1648,8,2,0,3309
1655,8,2,0,3310
1660,9,2,0,3311
1661,9,2,0,3312
1655,9,2,0,3313
1644,9,2,0,3314
1627,9,2,0,3315
1609,9,2,0,3316
1591,9,2,0,3317
1575,9,1,0,3318
1565,9,1,0,3319
1560,9,1,0,3320
1560,9,1,0,3321
1565,10,1,0,3322
1572,10,1,0,3323
1580,10,1,0,3324
1587,10,0,0,3325
1593,10,0,0,3326
1597,10,0,0,3327
1599,10,0,0,3328
1600,10,0,0,3329
1599,10,0,0,3330
1598,10,0,0,3331
1595,10,0,0,3332
1592,10,0,0,3333
1589,10,-1,0,3334
1586,9,0,0,3335
1584,9,0,0,3336
1584,9,0,0,3337
1584,9,0,0,3338
1586,8,0,0,3339
1589,8,0,0,3340
1592,8,0,0,3341
1595,8,0,0,3342
1596,8,0,0,3343
1596,8,0,0,3344
1594,8,0,0,3345
1591,8,0,0,3346
1588,8,0,0,3347
1584,8,0,0,3348
1582,8,0,0,3349
1580,8,0,0,3350
1581,8,0,0,3351
1584,9,0,0,3352
1587,9,0,0,3353
1592,9,1,0,3354
1597,9,1,0,3355
1600,9,1,0,3356
1603,10,1,0,3357
1604,10,1,0,3358
1604,10,1,0,3359
1603,10,1,0,3360
1601,10,1,0,3361
1600,10,1,0,3362
1600,10,2,0,3363
1601,10,3,0,3364
1602,10,4,0,3365
1604,10,5,0,3366
1606,11,7,0,3367
1609,11,8,0,3368
1612,12,9,0,3369
1615,12,9,0,3370
1618,13,9,0,3371
1623,13,9,0,3372
1627,13,10,0,3373
1632,13,13,0,3374
1636,13,17,0,3375
1639,13,25,0,3376
1641,13,36,0,3377
1642,13,51,0,3378
1642,13,68,0,3379
1640,14,87,0,3380
1638,17,107,0,3381
1636,20,125,0,3382
1634,23,140,0,3383
1633,27,151,0,3384
1631,30,159,0,3385
1630,32,162,0,3386
1630,33,163,0,3387
1630,33,163,0,3388
1631,33,164,0,3389
1634,35,168,0,3390
1639,41,178,0,3391
1646,53,195,0,3392
1655,73,221,0,3393
1665,101,255,0,3394
1676,137,297,0,3395
1686,181,345,0,3396
1694,230,397,0,3397
1700,278,450,0,3398
1703,323,501,0,3399
1704,361,547,0,3400
1702,389,587,0,3401
1698,408,619,0,3402
1693,417,642,0,3403
1687,419,655,0,3404
1680,419,661,0,3405
1672,422,663,0,3406
1664,433,661,0,3407
1642,502,663,0,3408
1628,566,671,0,3409
1614,653,685,0,3410
1600,757,707,0,3411
1586,877,736,0,3412
1575,1007,770,0,3413
1566,1139,806,0,3414
1561,1266,842,0,3415
1560,1383,875,0,3416
1562,1483,905,0,3417
1565,1563,928,0,3418
1571,1620,945,0,3419
1576,1657,956,0,3420
1581,1675,962,0,3421
1585,1681,965,0,3422
1588,1682,966,0,3423
1590,1683,966,0,3424
1591,1691,965,0,3425
1592,1711,965,0,3426
1593,1748,965,0,3427
1596,1803,964,0,3428
1599,1877,961,0,3429
1603,1967,953,0,3430
1606,2069,940,0,3431
1608,2179,921,0,3432
1608,2290,894,0,3433
1606,2400,862,0,3434
1602,2502,824,0,3435
1595,2593,783,0,3436
1588,2669,740,0,3437
1581,2729,697,0,3438
1575,2775,658,0,3439
1570,2806,625,0,3440
1567,2824,597,0,3441
1565,2832,579,0,3442
1561,2834,567,0,3443
1553,2834,561,0,3444
1539,2834,560,0,3445
1519,2836,560,0,3446
1494,2842,557,0,3447
1466,2853,549,0,3448
1443,2870,533,0,3449
1432,2890,507,0,3450
1444,2914,471,0,3451
1487,2939,424,0,3452
1569,2965,369,0,3453
1692,2990,309,0,3454
1853,3011,247,0,3455
2043,3030,188,0,3456
2247,3046,133,0,3457
2446,3058,85,0,3458
2618,3068,45,0,3459
2745,3075,13,0,3460
2808,3080,-11,0,3461
2800,3083,-30,0,3462
2715,3083,-47,1,3463
2559,3077,-64,1,3464
2342,3065,-85,0,3465
2079,3046,-111,0,3466
1790,3017,-145,0,3467
1494,2981,-187,0,3468
1212,2938,-235,0,3469
960,2890,-289,0,3470
753,2842,-346,0,3471
600,2798,-404,0,3472
505,2761,-458,0,3473
468,2733,-508,0,3474
483,2715,-550,0,3475
541,2706,-583,0,3476
628,2703,-607,0,3477
732,2703,-623,0,3478
840,2701,-633,0,3479
942,2690,-640,0,3480
1032,2665,-645,0,3481
1107,2621,-652,0,3482
1171,2557,-662,0,3483
1226,2472,-679,0,3484
1279,2368,-702,0,3485
1335,2249,-730,0,3486
1397,2120,-764,0,3487
1465,1989,-800,0,3488
1537,1862,-835,0,3489
1610,1746,-868,0,3490
1677,1646,-897,0,3491
1733,1566,-920,0,3492
1774,1509,-937,0,3493
1799,1473,-948,0,3494
1808,1454,-954,0,3495
1804,1448,-958,0,3496
1791,1448,-959,0,3497
1773,1447,-959,0,3498
1754,1439,-959,0,3499
1737,1420,-959,0,3500
1726,1384,-959,0,3501
1719,1330,-959,0,3502
1717,1258,-955,0,3503
1718,1168,-948,0,3504
1721,1067,-935,0,3505
1724,959,-916,0,3506
1726,848,-890,0,3507
1727,740,-858,0,3508
1726,639,-821,0,3509
1725,548,-780,0,3510
1725,473,-739,0,3511
1724,413,-698,0,3512
1725,367,-661,0,3513
1727,336,-628,0,3514
1730,318,-603,0,3515
1734,309,-585,0,3516
1737,306,-574,0,3517
1739,306,-568,0,3518
1740,305,-567,0,3519
1739,303,-568,0,3520
1737,296,-568,0,3521
1734,285,-564,0,3522
1730,268,-557,0,3523
1727,248,-542,0,3524
1724,224,-521,0,3525
1723,198,-492,0,3526
1723,170,-456,0,3527
1724,143,-416,0,3528
1727,118,-374,0,3529
1731,95,-329,0,3530
1736,76,-286,0,3531
1741,60,-246,0,3532
1746,48,-209,0,3533
1750,40,-179,0,3534
1752,34,-155,0,3535
1753,31,-136,0,3536
1752,30,-124,0,3537
1749,29,-117,0,3538
1745,29,-113,0,3539
1740,29,-112,0,3540
1735,29,-112,0,3541
1732,29,-112,0,3542
1730,28,-111,0,3543
1730,28,-108,0,3544
1732,27,-104,0,3545
1737,26,-98,0,3546
1743,26,-90,0,3547
1749,26,-80,0,3548
1754,25,-70,0,3549
1758,26,-59,0,3550
1761,26,-48,0,3551
1762,26,-38,0,3552
1762,27,-29,0,3553
1761,27,-21,0,3554
1761,27,-15,0,3555
1761,28,-10,0,3556
1763,28,-8,0,3557
1766,27,-5,0,3558
1771,27,-4,0,3559
1778,27,-4,0,3560
1785,26,-4,0,3561
1792,26,-5,0,3562
1799,25,-5,0,3563
1804,25,-6,0,3564
1809,24,-6,0,3565
1811,24,-6,0,3566
1812,24,-6,0,3567
1811,24,-6,0,3568
1809,24,-5,0,3569
1806,24,-5,0,3570
1804,24,-5,0,3571
1801,24,-5,0,3572
1800,23,-5,0,3573
1801,22,-5,0,3574
1802,22,-5,0,3575
1805,21,-6,0,3576
1807,20,-6,0,3577
1810,19,-6,0,3578
1811,18,-6,0,3579
1812,17,-6,0,3580
1812,16,-6,0,3581
1811,15,-6,0,3582
1810,14,-6,0,3583
1810,14,-5,0,3584
1810,14,-5,0,3585
1811,14,-5,0,3586
1813,14,-5,0,3587
1816,14,-4,0,3588
1817,14,-4,0,3589
1817,14,-4,0,3590
1814,14,-4,0,3591
1809,14,-4,0,3592
1802,14,-4,0,3593
1793,14,-4,0,3594
1784,14,-4,0,3595
1775,14,-4,0,3596
1767,14,-4,0,3597
1761,14,-4,0,3598
1756,14,-3,0,3599
1751,14,-3,0,3600
1747,14,-3,0,3601
1742,14,-2,0,3602
1736,14,-2,0,3603
1727,14,-2,0,3604
1717,14,-2,0,3605
1706,14,-1,0,3606
1693,14,-2,0,3607
1680,14,-2,0,3608
1666,14,-2,0,3609
1652,14,-2,0,3610
1639,14,-2,0,3611
1626,14,-2,0,3612
1613,14,-3,0,3613
1601,14,-3,0,3614
1589,14,-3,0,3615
1578,14,-3,0,3616
1568,14,-4,0,3617
1559,13,-4,0,3618
1551,13,-4,0,3619
1543,13,-4,0,3620
1537,12,-4,0,3621
1530,12,-4,0,3622
1524,12,-4,0,3623
1519,11,-4,0,3624
1513,11,-4,0,3625
1509,10,-4,0,3626
1504,10,-4,0,3627
1501,9,-4,0,3628
1499,9,-4,0,3629
1497,8,-4,0,3630
1496,8,-4,0,3631
1495,7,-4,0,3632
1495,7,-4,0,3633
1494,6,-4,0,3634
1494,6,-5,0,3635
1493,6,-5,0,3636
1493,6,-5,0,3637
1493,6,-5,0,3638
1494,6,-5,0,3639
1496,6,-5,0,3640
1499,6,-5,0,3641
1503,6,-5,0,3642
1507,6,-5,0,3643
1512,5,-5,0,3644
1516,5,-5,0,3645
1519,5,-5,0,3646
1521,5,-5,0,3647
1521,5,-5,0,3648
1521,4,-4,0,3649
1518,4,-4,0,3650
1515,4,-4,0,3651
1512,3,-4,0,3652
1509,3,-4,0,3653
1507,3,-4,0,3654
1507,2,-3,0,3655
1508,2,-3,0,3656
1510,2,-3,0,3657
1514,2,-3,0,3658
1518,1,-3,0,3659
1523,1,-3,0,3660
1528,1,-3,0,3661
1532,0,-3,0,3662
1536,0,-3,0,3663
1539,0,-3,0,3664
1542,0,-3,0,3665
1545,0,-3,0,3666
1547,0,-2,0,3667
1549,0,-2,0,3668
1550,0,-2,0,3669
1552,0,-2,0,3670
1552,0,-2,0,3671
1553,0,-2,0,3672
1553,0,-2,0,3673
1553,0,-2,0,3674
1553,0,-2,0,3675
1553,0,-2,0,3676
1553,0,-2,0,3677
1552,0,-1,0,3678
1552,0,-1,0,3679
1552,0,-1,0,3680
1552,0,-1,0,3681
1552,0,-1,0,3682
1552,0,-1,0,3683
1552,0,-1,0,3684
1553,0,0,0,3685
1553,0,0,0,3686
1554,0,0,0,3687
1554,0,0,0,3688
1556,0,0,0,3689
1557,0,0,0,3690
1558,0,0,0,3691
1559,0,0,0,3692
1559,0,0,0,3693
1560,0,0,0,3694
1560,0,0,0,3695
1561,0,0,0,3696
1561,0,0,0,3697
1562,0,0,0,3698
1563,0,0,0,3699
1564,0,0,0,3700
1565,0,0,0,3701
1565,0,0,0,3702
1565,0,0,0,3703
1564,0,0,0,3704
1563,0,0,0,3705
1562,0,0,0,3706
1560,0,0,0,3707
1560,0,0,0,3708
1560,0,0,0,3709
1562,0,0,0,3710
1564,0,0,0,3711
1568,0,0,0,3712
1572,0,0,0,3713
1576,0,0,0,3714
1579,0,0,0,3715
1581,0,0,0,3716
1582,0,0,0,3717
1581,0,0,0,3718
1579,0,0,0,3719
1576,0,0,0,3720
1574,0,0,0,3721
1572,0,0,0,3722
1571,0,0,0,3723
1572,0,0,0,3724
1573,0,0,0,3725
1575,0,0,0,3726
1577,0,0,0,3727
1579,0,0,0,3728
1580,0,0,0,3729
1580,0,0,0,3730
1580,0,0,0,3731
1579,0,0,0,3732
1578,0,0,0,3733
1576,0,0,0,3734
1576,0,0,0,3735
1575,0,0,0,3736
1575,0,0,0,3737
1575,0,0,0,3738
1576,0,0,0,3739
1577,0,0,0,3740
1577,0,0,0,3741
1578,0,0,0,3742
1578,0,0,0,3743
1578,0,0,0,3744
1579,0,0,0,3745
1580,0,0,0,3746
1581,0,0,0,3747
1582,0,0,0,3748
1584,0,0,0,3749
1586,0,0,0,3750
1588,0,0,0,3751
1589,0,0,0,3752
1590,1,0,0,3753
1590,1,1,0,3754
1590,1,1,0,3755
1589,1,1,0,3756
1589,1,1,0,3757
1589,1,1,0,3758
1590,1,1,0,3759
1592,1,1,0,3760
1594,1,1,0,3761
1596,1,1,0,3762
1598,1,2,0,3763
1600,1,2,0,3764
1601,1,2,0,3765
1601,2,2,0,3766
1600,2,2,0,3767
1598,2,2,0,3768
1596,2,2,0,3769
1595,2,2,0,3770
1594,3,2,0,3771
1595,3,3,0,3772
1596,3,3,0,3773
1599,4,3,0,3774
1602,4,3,0,3775
1605,4,2,0,3776
1608,5,2,0,3777
1609,5,2,0,3778
1610,5,2,0,3779
1610,6,2,0,3780
1609,6,2,0,3781
1607,6,2,0,3782
1606,7,2,0,3783
1605,7,2,0,3784
1604,7,2,0,3785
1604,7,2,0,3786
1604,7,2,0,3787
1605,7,2,0,3788
1606,8,2,0,3789
1608,8,2,0,3790
1611,8,2,0,3791
1615,8,2,0,3792
1620,8,2,0,3793
1627,8,1,0,3794
1633,8,1,0,3795
1640,8,1,0,3796
1647,8,1,0,3797
1651,8,1,0,3798
1654,8,1,0,3799
1653,8,1,0,3800
1650,8,1,0,3801
1645,8,1,0,3802
1640,8,1,0,3803
1636,8,1,0,3804
1634,8,1,0,3805
1636,8,0,0,3806
1641,8,0,0,3807
1648,8,0,0,3808
1655,8,0,0,3809
1660,8,1,0,3810
1659,8,1,0,3811
1653,8,0,0,3812
1642,8,0,0,3813
1625,8,0,0,3814
1607,8,0,0,3815
1589,8,0,0,3816
1574,8,0,0,3817
1564,8,0,0,3818
1560,9,0,0,3819
1561,9,0,0,3820
1565,9,0,0,3821
1572,9,0,0,3822
1580,9,0,0,3823
1587,9,0,0,3824
1593,9,0,0,3825
1597,9,0,0,3826
1600,10,0,0,3827
1600,10,0,0,3828
1600,10,0,0,3829
1598,10,-1,0,3830
1595,9,-1,0,3831
1592,9,-1,0,3832
1588,9,-1,0,3833
1586,9,-1,0,3834
1584,9,-1,0,3835
1584,9,-1,0,3836
1585,9,-1,0,3837
1587,9,-1,0,3838
1590,9,-2,0,3839
1593,9,-2,0,3840
1596,9,-2,0,3841
1597,9,-2,0,3842
1596,8,-2,0,3843
1595,8,-2,0,3844
1592,8,-2,0,3845
1588,8,-2,0,3846
1584,7,-2,0,3847
1582,7,-2,0,3848
1581,7,-2,0,3849
1582,7,-2,0,3850
1584,6,-2,0,3851
1588,6,-2,0,3852
1593,6,-2,0,3853
1597,6,-1,0,3854
1601,6,-1,0,3855
1604,5,-1,0,3856
1605,5,-1,0,3857
1605,5,-1,0,3858
1603,5,-1,0,3859
1602,5,0,0,3860
1601,5,0,0,3861
1600,5,1,0,3862
1600,5,1,0,3863
1601,5,3,0,3864
1603,5,5,0,3865
1605,5,6,0,3866
1608,6,7,0,3867
1611,6,8,0,3868
1614,7,9,0,3869
1618,7,9,0,3870
1622,7,9,0,3871
1626,8,10,0,3872
1631,8,13,0,3873
1635,8,18,0,3874
1639,8,27,0,3875
1641,8,39,0,3876
1642,9,55,0,3877
1642,10,73,0,3878
1641,12,95,0,3879
1639,14,115,0,3880
1637,18,135,0,3881
1635,22,151,0,3882
1633,25,163,0,3883
1632,28,171,0,3884
1631,30,176,0,3885
1630,31,177,0,3886
1631,31,177,0,3887
1632,32,178,0,3888
1636,34,182,0,3889
1641,40,192,0,3890
1648,53,209,0,3891
1657,75,235,0,3892
1668,105,269,0,3893
1678,145,312,0,3894
1688,191,361,0,3895
1696,243,414,0,3896
1702,295,468,0,3897
1704,343,519,0,3898
1705,384,567,0,3899
1702,415,608,0,3900
1699,435,640,0,3901
1694,446,664,0,3902
1688,449,679,0,3903
1682,449,685,0,3904
1674,451,687,0,3905
1666,462,686,0,3906
1644,531,687,0,3907
1630,596,694,0,3908
1616,682,708,0,3909
1601,789,729,0,3910
1587,911,757,0,3911
1576,1044,790,0,3912
1567,1179,826,0,3913
1562,1308,862,0,3914
1560,1428,896,0,3915
1562,1530,924,0,3916
1566,1612,948,0,3917
1571,1673,964,0,3918
1577,1712,975,0,3919
1582,1733,981,0,3920
1586,1740,983,0,3921
1589,1741,983,0,3922
1591,1742,983,0,3923
1592,1749,982,0,3924
1593,1768,982,0,3925
1594,1803,982,0,3926
1597,1857,981,0,3927
1600,1929,977,0,3928
1603,2017,970,0,3929
1607,2119,957,0,3930
1609,2231,937,0,3931
1609,2346,911,0,3932
1606,2457,877,0,3933
1602,2562,838,0,3934
1595,2655,795,0,3935
1588,2733,751,0,3936
1581,2796,709,0,3937
1575,2842,669,0,3938
1571,2874,635,0,3939
1568,2893,607,0,3940
1565,2903,587,0,3941
1560,2906,575,0,3942
1552,2906,569,0,3943
1538,2906,567,0,3944
1517,2907,567,0,3945
1492,2913,564,0,3946
1464,2924,556,0,3947
1442,2939,540,0,3948
1432,2960,513,0,3949
1446,2983,476,0,3950
1491,3008,429,0,3951
1575,3034,373,0,3952
1699,3058,311,0,3953
1861,3081,247,0,3954
2052,3101,185,0,3955
2255,3118,129,0,3956
2452,3131,79,0,3957
2624,3142,37,0,3958
2750,3150,5,0,3959
2815,3156,-20,0,3960
2809,3159,-40,0,3961
2728,3159,-57,1,3962
2577,3153,-74,1,3963
2365,3141,-96,0,3964
2106,3119,-122,0,3965
1820,3088,-157,0,3966
1524,3049,-199,0,3967
1239,3002,-248,0,3968
982,2951,-303,0,3969
769,2899,-362,0,3970
609,2851,-419,0,3971
509,2811,-475,0,3972
468,2781,-525,0,3973
481,2760,-568,0,3974
537,2750,-603,0,3975
625,2747,-628,0,3976
730,2747,-646,0,3977
838,2744,-656,0,3978
941,2733,-664,0,3979
1031,2708,-669,0,3980
1107,2665,-676,0,3981
1170,2601,-687,0,3982
1226,2515,-703,0,3983
1280,2409,-725,0,3984
1336,2287,-753,0,3985
1398,2156,-785,0,3986
1466,2021,-821,0,3987
1538,1892,-856,0,3988
1610,1773,-889,0,3989
1675,1671,-917,0,3990
1731,1589,-940,0,3991
1772,1528,-956,0,3992
1797,1489,-966,0,3993
1807,1468,-972,0,3994
1804,1461,-974,0,3995
1791,1460,-975,0,3996
1774,1460,-974,0,3997
1755,1453,-974,0,3998
1739,1434,-975,0,3999
1726,1400,-975,0,4000
1719,1348,-974,0,4001
1716,1278,-970,0,4002
1717,1191,-962,0,4003
1720,1090,-950,0,4004
1723,980,-930,0,4005
1725,867,-904,0,4006
1727,757,-871,0,4007
1727,654,-833,0,4008
1726,562,-791,0,4009
1725,484,-748,0,4010
1725,423,-707,0,4011
1725,376,-669,0,4012
1727,344,-636,0,4013
1729,325,-610,0,4014
1732,315,-591,0,4015
1734,311,-579,0,4016
1736,311,-573,0,4017
1737,311,-572,0,4018
1737,309,-572,0,4019
1736,303,-572,0,4020
1734,292,-570,0,4021
1732,276,-562,0,4022
1729,256,-548,0,4023
1726,232,-528,0,4024
1724,206,-500,0,4025
1724,179,-465,0,4026
1725,151,-425,0,4027
1727,125,-381,0,4028
1731,101,-336,0,4029
1735,81,-292,0,4030
1740,64,-251,0,4031
1745,51,-214,0,4032
1749,42,-182,0,4033
1751,36,-158,0,4034
1752,33,-139,0,4035
1751,31,-126,0,4036
1748,30,-118,0,4037
1744,30,-114,0,4038
1739,30,-112,0,4039
1735,30,-112,0,4040
1731,30,-112,0,4041
1729,30,-112,0,4042
1729,30,-110,0,4043
1731,29,-105,0,4044
1736,29,-99,0,4045
1742,29,-91,0,4046
1748,28,-81,0,4047
1754,28,-71,0,4048
1758,29,-60,0,4049
1761,29,-49,0,4050
1762,30,-38,0,4051
1762,30,-29,0,4052
1761,30,-21,0,4053
1761,31,-14,0,4054
1761,31,-9,0,4055
1762,31,-6,0,4056
1766,31,-4,0,4057
1771,31,-3,0,4058
1778,30,-3,0,4059
1785,30,-3,0,4060
1792,30,-4,0,4061
1799,30,-4,0,4062
1805,30,-4,0,4063
1809,30,-5,0,4064
1811,30,-5,0,4065
1812,30,-6,0,4066
1811,30,-6,0,4067
1809,30,-6,0,4068
1806,30,-6,0,4069
1804,30,-6,0,4070
1802,29,-6,0,4071
1801,29,-6,0,4072
1801,28,-6,0,4073
1802,27,-6,0,4074
1805,26,-6,0,4075
1807,25,-6,0,4076
1810,24,-7,0,4077
1812,22,-7,0,4078
1812,21,-7,0,4079
1812,20,-7,0,4080
1812,19,-7,0,4081
1811,18,-6,0,4082
1810,17,-6,0,4083
1810,16,-6,0,4084
1811,16,-6,0,4085
1813,16,-6,0,4086
1815,15,-6,0,4087
1816,15,-6,0,4088
1815,15,-6,0,4089
1813,15,-6,0,4090
1808,15,-6,0,4091
1801,15,-6,0,4092
1792,15,-6,0,4093
1783,15,-6,0,4094
1775,15,-6,0,4095
1767,15,-6,0,4096
1760,15,-5,0,4097
1755,15,-5,0,4098
1751,15,-4,0,4099
1746,15,-4,0,4100
1741,15,-4,0,4101
1735,15,-3,0,4102
1727,15,-3,0,4103
1717,15,-3,0,4104
1706,15,-2,0,4105
1693,15,-2,0,4106
1680,15,-2,0,4107
1666,15,-2,0,4108
1652,15,-2,0,4109
1639,15,-2,0,4110
1625,15,-2,0,4111
1612,15,-3,0,4112
1600,15,-3,0,4113
1588,15,-3,0,4114
1576,15,-3,0,4115
1566,15,-4,0,4116
1556,14,-4,0,4117
1548,14,-4,0,4118
1541,14,-4,0,4119
1534,13,-4,0,4120
1529,13,-4,0,4121
1523,13,-4,0,4122
1518,12,-4,0,4123
1513,12,-4,0,4124
1508,11,-4,0,4125
1504,11,-4,0,4126
1501,10,-4,0,4127
1498,10,-4,0,4128
1497,9,-4,0,4129
1495,9,-5,0,4130
1495,8,-5,0,4131
1495,8,-5,0,4132
1494,7,-5,0,4133
1494,7,-5,0,4134
1494,6,-5,0,4135
1494,6,-5,0,4136
1494,6,-6,0,4137
1495,5,-6,0,4138
1497,5,-6,0,4139
1500,5,-6,0,4140
1503,5,-6,0,4141
1507,5,-6,0,4142
1511,5,-6,0,4143
1515,5,-6,0,4144
1518,5,-6,0,4145
1520,5,-5,0,4146
1521,4,-5,0,4147
1520,4,-5,0,4148
1518,4,-5,0,4149
1515,4,-4,0,4150
1511,3,-4,0,4151
1509,3,-4,0,4152
1507,3,-4,0,4153
1507,2,-4,0,4154
1508,2,-4,0,4155
1510,2,-3,0,4156
1514,1,-3,0,4157
1518,1,-3,0,4158
1523,1,-3,0,4159
1528,0,-3,0,4160
1532,0,-2,0,4161
1536,0,-2,0,4162
1539,0,-2,0,4163
1542,0,-2,0,4164
1544,0,-2,0,4165
1547,0,-2,0,4166
1548,0,-2,0,4167
1550,0,-2,0,4168
1551,0,-2,0,4169
1552,0,-2,0,4170
1552,0,-2,0,4171
1553,0,-2,0,4172
1553,0,-2,0,4173
1553,0,-2,0,4174
1553,0,-2,0,4175
1552,0,-2,0,4176
1552,0,-1,0,4177
1552,0,-1,0,4178
1552,0,-1,0,4179
1552,0,-1,0,4180
1552,0,-1,0,4181
1552,0,-1,0,4182
1552,0,0,0,4183
1553,0,0,0,4184
1553,0,0,0,4185
1554,0,0,0,4186
1554,0,0,0,4187
1555,0,0,0,4188
1557,0,0,0,4189
1558,0,0,0,4190
1559,0,0,0,4191
1559,0,0,0,4192
1560,0,0,0,4193
1560,0,0,0,4194
1560,0,0,0,4195
1561,0,0,0,4196
1561,0,0,0,4197
1562,0,0,0,4198
1563,0,0,0,4199
1564,0,0,0,4200
1565,0,0,0,4201
1565,0,0,0,4202
1564,0,0,0,4203
1563,0,0,0,4204
1562,0,0,0,4205
1560,0,0,0,4206
1560,0,0,0,4207
1560,0,0,0,4208
1562,0,0,0,4209
1564,0,0,0,4210
1568,0,0,0,4211
1572,0,0,0,4212
1576,0,0,0,4213
1579,0,0,0,4214
1581,0,0,0,4215
1582,0,0,0,4216
1581,0,0,0,4217
1579,0,0,0,4218
1577,0,0,0,4219
1575,0,0,0,4220
1573,0,0,0,4221
1573,0,0,0,4222
1573,0,0,0,4223
1574,0,0,0,4224
1575,0,0,0,4225
1577,0,0,0,4226
1578,0,0,0,4227
1579,0,0,0,4228
1580,0,0,0,4229
1580,0,0,0,4230
1579,0,0,0,4231
1578,0,0,0,4232
1577,0,0,0,4233
1577,0,0,0,4234
1576,0,0,0,4235
1576,0,0,0,4236
1576,0,0,0,4237
1576,1,0,0,4238
1577,1,0,0,4239
1578,1,0,0,4240
1578,1,0,0,4241
1579,1,0,0,4242
1579,1,0,0,4243
1580,1,0,0,4244
1581,1,0,0,4245
1582,1,0,0,4246
1584,1,1,0,4247
1585,1,1,0,4248
1587,1,1,0,4249
1588,1,1,0,4250
1589,1,1,0,4251
1590,1,1,0,4252
1591,1,1,0,4253
1591,1,1,0,4254
1591,2,1,0,4255
1591,2,1,0,4256
1591,2,1,0,4257
1592,2,1,0,4258
1593,2,1,0,4259
1594,2,1,0,4260
1596,2,0,0,4261
1598,2,0,0,4262
1600,2,0,0,4263
1601,3,0,0,4264
1601,3,0,0,4265
1600,3,0,0,4266
1599,3,0,0,4267
1597,3,0,0,4268
1596,3,0,0,4269
1595,3,0,0,4270
1596,3,0,0,4271
1597,3,0,0,4272
1600,3,0,0,4273
1603,3,0,0,4274
1606,3,0,0,4275
1608,3,0,0,4276
1610,3,0,0,4277
1611,3,0,0,4278
1610,3,0,0,4279
1609,3,0,0,4280
1608,3,0,0,4281
1607,3,1,0,4282
1605,3,1,0,4283
1604,3,1,0,4284
1604,3,1,0,4285
1604,3,1,0,4286
1605,3,1,0,4287
1607,3,1,0,4288
1609,3,1,0,4289
1612,3,1,0,4290
1617,3,1,0,4291
1622,3,1,0,4292
1629,3,1,0,4293
1636,3,1,0,4294
1642,4,1,0,4295
1648,4,1,0,4296
1653,4,1,0,4297
1655,4,1,0,4298
1654,5,1,0,4299
1651,5,1,0,4300
1646,5,1,0,4301
1641,5,1,0,4302
1637,6,1,0,4303
1635,6,1,0,4304
1637,6,1,0,4305
1642,7,1,0,4306
1649,7,1,0,4307
1656,7,1,0,4308
1661,8,1,0,4309
1662,8,1,0,4310
1657,8,1,0,4311
1646,8,1,0,4312
1631,8,1,0,4313
1612,8,1,0,4314
1594,8,1,0,4315
1578,8,1,0,4316
1567,8,1,0,4317
1562,8,1,0,4318
1562,8,1,0,4319
1566,8,1,0,4320
1573,8,1,0,4321
1581,8,0,0,4322
1588,8,0,0,4323
1594,8,0,0,4324
1598,8,0,0,4325
1600,8,0,0,4326
1601,8,0,0,4327
1600,8,0,0,4328
1598,8,0,0,4329
1595,8,0,0,4330
1592,8,0,0,4331
1589,8,-1,0,4332
1586,8,0,0,4333
1584,8,0,0,4334
1584,8,0,0,4335
1585,8,0,0,4336
1587,7,0,0,4337
1590,7,0,0,4338
1593,7,0,0,4339
1595,7,0,0,4340
1596,7,0,0,4341
1596,7,0,0,4342
1595,7,0,0,4343
1592,7,0,0,4344
1588,7,0,0,4345
1584,7,0,0,4346
1581,7,0,0,4347
1580,7,0,0,4348
1581,7,0,0,4349
1583,8,0,0,4350
1587,8,0,0,4351
1592,8,0,0,4352
1596,8,0,0,4353
1600,8,0,0,4354
1603,9,0,0,4355
1604,9,0,0,4356
1604,9,0,0,4357
1602,9,0,0,4358
1601,9,0,0,4359
1600,9,0,0,4360
1599,9,1,0,4361
1599,9,1,0,4362
1601,9,3,0,4363
1602,9,4,0,4364
1605,9,5,0,4365
1608,9,6,0,4366
1610,9,7,0,4367
1614,9,7,0,4368
1617,10,7,0,4369
1621,10,7,0,4370
1626,10,8,0,4371
1630,9,11,0,4372
1635,9,16,0,4373
1638,9,24,0,4374
1640,9,36,0,4375
1641,9,51,0,4376
1641,9,69,0,4377
1639,10,88,0,4378
1637,12,107,0,4379
1635,15,125,0,4380
1633,18,141,0,4381
1632,21,153,0,4382
1631,24,161,0,4383
1630,26,165,0,4384
1630,26,166,0,4385
1631,26,166,0,4386
1633,27,167,0,4387
1636,29,171,0,4388
1641,36,181,0,4389
1648,49,198,0,4390
1657,69,223,0,4391
1667,99,257,0,4392
1677,137,299,0,4393
1687,182,346,0,4394
1696,230,399,0,4395
1702,279,451,0,4396
1705,324,502,0,4397
1706,364,549,0,4398
1704,393,589,0,4399
1700,413,621,0,4400
1695,422,643,0,4401
1688,425,657,0,4402
1681,425,663,0,4403
1673,427,665,0,4404
1665,439,664,0,4405
1643,506,665,0,4406
1630,569,674,0,4407
1616,653,688,0,4408
1602,758,710,0,4409
1588,877,739,0,4410
1577,1007,772,0,4411
1568,1139,809,0,4412
1563,1266,845,0,4413
1561,1383,879,0,4414
1563,1483,909,0,4415
1566,1563,933,0,4416
1572,1620,951,0,4417
1577,1657,962,0,4418
1582,1675,969,0,4419
1586,1682,972,0,4420
1589,1682,973,0,4421
1590,1683,973,0,4422
1591,1691,973,0,4423
1592,1712,973,0,4424
1594,1748,973,0,4425
1596,1803,973,0,4426
1599,1877,969,0,4427
1603,1968,961,0,4428
1606,2072,949,0,4429
1609,2184,930,0,4430
1609,2298,905,0,4431
1607,2410,873,0,4432
1602,2515,836,0,4433
1596,2608,795,0,4434
1589,2686,753,0,4435
1581,2748,712,0,4436
1575,2795,673,0,4437
1570,2827,641,0,4438
1567,2847,615,0,4439
1564,2856,597,0,4440
1560,2859,585,0,4441
1552,2860,581,0,4442
1538,2860,579,0,4443
1518,2862,579,0,4444
1493,2869,577,0,4445
1465,2880,569,0,4446
1442,2896,552,0,4447
1432,2918,525,0,4448
1443,2943,489,0,4449
1486,2969,441,0,4450
1567,2996,385,0,4451
1689,3022,324,0,4452
1850,3047,261,0,4453
2039,3068,201,0,4454
2242,3086,144,0,4455
2440,3101,94,0,4456
2614,3113,53,0,4457
2742,3122,21,0,4458
2809,3128,-4,0,4459
2804,3132,-24,0,4460
2724,3132,-41,1,4461
2572,3126,-59,1,4462
2358,3114,-79,0,4463
2098,3093,-105,0,4464
1809,3063,-139,0,4465
1512,3026,-181,0,4466
1227,2980,-229,0,4467
972,2932,-284,0,4468
761,2884,-340,0,4469
604,2839,-398,0,4470
507,2801,-453,0,4471
469,2771,-503,0,4472
484,2752,-545,0,4473
541,2743,-579,0,4474
628,2740,-604,0,4475
732,2740,-621,0,4476
839,2737,-632,0,4477
940,2726,-640,0,4478
1029,2701,-646,0,4479
1104,2659,-654,0,4480
1167,2597,-665,0,4481
1222,2513,-682,0,4482
1275,2409,-705,0,4483
1332,2290,-734,0,4484
1394,2161,-767,0,4485
1463,2030,-804,0,4486
1535,1903,-840,0,4487
1608,1786,-872,0,4488
1675,1687,-902,0,4489
1731,1607,-925,0,4490
1773,1550,-942,0,4491
1798,1513,-954,0,4492
1808,1495,-961,0,4493
1805,1488,-964,0,4494
1792,1488,-965,0,4495
1774,1487,-965,0,4496
1755,1479,-966,0,4497
1738,1460,-966,0,4498
1726,1424,-966,0,4499
1719,1370,-965,0,4500
1717,1298,-961,0,4501
1718,1209,-954,0,4502
1720,1106,-942,0,4503
1723,995,-924,0,4504
1726,883,-898,0,4505
1727,772,-867,0,4506
1727,669,-830,0,4507
1726,577,-790,0,4508
1725,500,-749,0,4509
1725,438,-709,0,4510
1725,392,-672,0,4511
1726,359,-642,0,4512
1729,340,-616,0,4513
1731,330,-599,0,4514
1734,327,-588,0,4515
1736,327,-584,0,4516
1738,326,-582,0,4517
1738,324,-583,0,4518
1737,317,-583,0,4519
1735,306,-580,0,4520
1733,289,-573,0,4521
1730,268,-558,0,4522
1728,243,-537,0,4523
1726,216,-508,0,4524
1726,187,-472,0,4525
1727,158,-431,0,4526
1729,131,-387,0,4527
1732,106,-342,0,4528
1736,84,-298,0,4529
1741,67,-257,0,4530
1746,53,-220,0,4531
1750,43,-189,0,4532
1752,37,-164,0,4533
1753,33,-145,0,4534
1752,31,-132,0,4535
1750,30,-124,0,4536
1745,29,-120,0,4537
1740,29,-119,0,4538
1736,29,-119,0,4539
1732,29,-118,0,4540
1730,29,-118,0,4541
1730,29,-115,0,4542
1732,29,-111,0,4543
1737,28,-104,0,4544
1743,28,-96,0,4545
1749,28,-86,0,4546
1755,28,-75,0,4547
1759,28,-63,0,4548
1762,29,-52,0,4549
1763,29,-41,0,4550
1763,30,-31,0,4551
1762,30,-22,0,4552
1761,30,-16,0,4553
1761,31,-10,0,4554
1763,31,-6,0,4555
1766,31,-4,0,4556
1771,31,-3,0,4557
1778,31,-3,0,4558
1785,30,-3,0,4559
1793,30,-3,0,4560
1799,30,-4,0,4561
1805,30,-4,0,4562
1809,30,-4,0,4563
1811,30,-5,0,4564
1812,30,-5,0,4565
1810,30,-6,0,4566
1808,30,-5,0,4567
1805,30,-5,0,4568
1803,30,-5,0,4569
1801,29,-5,0,4570
1800,29,-5,0,4571
1800,28,-6,0,4572
1802,27,-6,0,4573
1804,26,-6,0,4574
1807,25,-6,0,4575
1810,24,-6,0,4576
1812,22,-6,0,4577
1813,21,-6,0,4578
1813,20,-6,0,4579
1812,19,-6,0,4580
1811,18,-6,0,4581
1810,17,-6,0,4582
1810,16,-6,0,4583
1811,16,-6,0,4584
1813,16,-6,0,4585
1814,16,-6,0,4586
1816,16,-6,0,4587
1815,16,-6,0,4588
1813,16,-6,0,4589
1808,16,-6,0,4590
1802,17,-6,0,4591
1793,17,-6,0,4592
1784,17,-5,0,4593
1775,17,-5,0,4594
1768,17,-5,0,4595
1761,17,-4,0,4596
1756,17,-4,0,4597
1752,17,-4,0,4598
1747,17,-4,0,4599
1742,17,-3,0,4600
1736,17,-2,0,4601
1727,17,-2,0,4602
1717,17,-2,0,4603
1706,17,-2,0,4604
1693,17,-1,0,4605
1680,17,-1,0,4606
1666,17,-1,0,4607
1652,17,-1,0,4608
1638,17,-2,0,4609
1625,17,-2,0,4610
1612,17,-2,0,4611
1599,17,-2,0,4612
1587,17,-2,0,4613
1576,17,-3,0,4614
1565,17,-3,0,4615
1556,16,-3,0,4616
1548,16,-3,0,4617
1541,16,-3,0,4618
1534,16,-3,0,4619
1528,15,-3,0,4620
1523,15,-3,0,4621
1518,15,-3,0,4622
1513,14,-3,0,4623
1508,14,-3,0,4624
1504,14,-3,0,4625
1500,13,-3,0,4626
1498,13,-3,0,4627
1496,12,-3,0,4628
1495,12,-3,0,4629
1495,12,-4,0,4630
1495,11,-4,0,4631
1495,11,-4,0,4632
1495,11,-4,0,4633
1495,10,-4,0,4634
1495,10,-4,0,4635
1495,10,-4,0,4636
1496,10,-4,0,4637
1498,10,-4,0,4638
1501,10,-4,0,4639
1504,10,-4,0,4640
1509,10,-4,0,4641
1513,10,-5,0,4642
1517,10,-4,0,4643
1521,10,-4,0,4644
1522,10,-5,0,4645
1523,10,-4,0,4646
1521,9,-4,0,4647
1519,9,-4,0,4648
1515,9,-4,0,4649
1512,8,-4,0,4650
1509,8,-4,0,4651
1507,8,-4,0,4652
1507,8,-4,0,4653
1509,7,-4,0,4654
1511,7,-4,0,4655
1515,6,-4,0,4656
1520,6,-3,0,4657
1524,6,-3,0,4658
1529,5,-3,0,4659
1533,5,-3,0,4660
1537,5,-3,0,4661
1540,4,-3,0,4662
1543,4,-3,0,4663
1545,4,-3,0,4664
1547,4,-3,0,4665
1549,4,-3,0,4666
1551,3,-3,0,4667
1552,3,-3,0,4668
1554,3,-3,0,4669
1554,3,-3,0,4670
1555,3,-3,0,4671
1555,3,-3,0,4672
1554,3,-2,0,4673
1553,3,-2,0,4674
1553,3,-2,0,4675
1552,3,-2,0,4676
1552,3,-2,0,4677
1552,3,-2,0,4678
1552,3,-2,0,4679
1552,3,-2,0,4680
1553,3,-2,0,4681
1553,3,-2,0,4682
1553,3,-2,0,4683
1553,3,-2,0,4684
1553,3,-1,0,4685
1554,3,-2,0,4686
1555,3,-2,0,4687
1556,3,-2,0,4688
1557,3,-2,0,4689
1558,3,-1,0,4690
1559,3,-1,0,4691
1559,3,-1,0,4692
1559,3,-1,0,4693
1560,2,-2,0,4694
1560,2,-2,0,4695
1561,2,-2,0,4696
1562,2,-2,0,4697
1563,2,-2,0,4698
1564,2,-2,0,4699
1564,2,-2,0,4700
1564,2,-2,0,4701
1564,2,-2,0,4702
1563,1,-2,0,4703
1562,1,-2,0,4704
1560,1,-2,0,4705
1560,1,-2,0,4706
1560,1,-2,0,4707
1561,1,-2,0,4708
1564,1,-2,0,4709
1568,1,-2,0,4710
1572,0,-2,0,4711
1576,0,-2,0,4712
1579,0,-2,0,4713
1581,0,-2,0,4714
1582,0,-2,0,4715
1581,0,-2,0,4716
1579,0,-1,0,4717
1576,0,-1,0,4718
1574,0,-1,0,4719
1572,0,-1,0,4720
1572,0,-1,0,4721
1572,0,-1,0,4722
1573,0,-1,0,4723
1575,0,-1,0,4724
1577,0,-1,0,4725
1579,0,0,0,4726
1580,0,0,0,4727
1580,0,0,0,4728
1579,0,0,0,4729
1579,0,0,0,4730
1577,0,0,0,4731
1576,0,0,0,4732
1576,0,0,0,4733
1575,0,0,0,4734
1575,0,0,0,4735
1576,0,0,0,4736
1576,0,0,0,4737
1577,0,0,0,4738
1577,0,0,0,4739
1578,1,0,0,4740
1578,1,0,0,4741
1579,1,0,0,4742
1579,1,0,0,4743
1580,1,0,0,4744
1581,1,0,0,4745
1583,1,0,0,4746
1584,1,0,0,4747
1586,1,0,0,4748
1587,2,0,0,4749
1588,2,0,0,4750
1589,2,0,0,4751
1589,2,0,0,4752
1589,2,0,0,4753
1589,2,0,0,4754
1589,2,0,0,4755
1589,2,0,0,4756
1590,2,0,0,4757
1592,2,0,0,4758
1594,2,0,0,4759
1596,2,0,0,4760
1597,2,0,0,4761
1599,2,0,0,4762
1599,2,0,0,4763
1599,2,0,0,4764
1598,2,0,0,4765
1597,2,0,0,4766
1595,2,0,0,4767
1594,2,0,0,4768
1594,2,0,0,4769
1594,2,0,0,4770
1596,2,0,0,4771
1599,2,0,0,4772
1602,2,0,0,4773
1605,2,0,0,4774
1607,2,0,0,4775
1609,2,0,0,4776
1609,2,0,0,4777
1609,2,0,0,4778
1608,2,0,0,4779
1606,2,0,0,4780
1605,2,0,0,4781
1604,2,0,0,4782
1603,2,0,0,4783
1603,2,0,0,4784
1604,2,0,0,4785
1605,2,0,0,4786
1606,2,0,0,4787
1608,2,0,0,4788
1611,2,0,0,4789
1615,2,0,0,4790
1621,2,0,0,4791
1627,2,0,0,4792
1634,2,0,0,4793
1642,2,0,0,4794
1649,2,0,0,4795
1654,2,0,0,4796
1657,2,0,0,4797
1656,2,0,0,4798
1653,2,0,0,4799
1647,2,0,0,4800
1642,2,0,0,4801
1637,2,0,0,4802
1635,2,0,0,4803
1636,2,0,0,4804
1641,2,0,0,4805
1648,2,0,0,4806
1656,2,0,0,4807
1661,2,0,0,4808
1661,2,0,0,4809
1655,2,0,0,4810
1644,2,0,0,4811
1628,2,0,0,4812
1609,2,0,0,4813
1591,2,0,0,4814
1576,2,0,0,4815
1566,2,0,0,4816
1561,2,0,0,4817
1562,2,0,0,4818
1567,2,0,0,4819
1574,3,1,0,4820
1582,3,1,0,4821
1589,3,1,0,4822
1595,3,1,0,4823
1599,3,1,0,4824
1601,3,1,0,4825
1602,3,1,0,4826
1601,3,1,0,4827
1598,3,1,0,4828
1596,3,1,0,4829
1592,3,1,0,4830
1589,3,1,0,4831
1586,4,1,0,4832
1584,4,1,0,4833
1584,4,1,0,4834
1585,4,1,0,4835
1587,4,1,0,4836
1590,5,1,0,4837
1593,5,1,0,4838
1595,5,1,0,4839
1597,5,1,0,4840
1596,5,1,0,4841
1595,5,1,0,4842
1592,5,1,0,4843
1588,5,1,0,4844
1585,5,1,0,4845
1582,5,1,0,4846
1581,6,1,0,4847
1582,6,1,0,4848
1585,6,2,0,4849
1589,6,2,0,4850
1593,6,2,0,4851
1598,6,2,0,4852
1602,6,3,0,4853
1604,6,3,0,4854
1605,7,2,0,4855
1604,7,2,0,4856
1603,7,2,0,4857
1601,7,3,0,4858
1599,7,3,0,4859
1599,7,3,0,4860
1599,7,5,0,4861
1600,7,6,0,4862
1602,7,8,0,4863
1605,8,9,0,4864
1608,8,11,0,4865
1611,9,12,0,4866
1614,9,13,0,4867
1618,10,13,0,4868
1622,10,13,0,4869
1627,11,13,0,4870
1631,11,15,0,4871
1635,11,19,0,4872
1638,11,27,0,4873
1641,11,37,0,4874
1641,12,50,0,4875
1641,13,67,0,4876
1640,15,85,0,4877
1638,18,102,0,4878
1636,22,119,0,4879
1634,26,133,0,4880
1632,30,143,0,4881
1631,34,150,0,4882
1631,36,153,0,4883
1630,38,154,0,4884
1630,38,154,0,4885
1632,38,155,0,4886
1635,39,159,0,4887
1640,44,169,0,4888
1647,55,186,0,4889
1655,74,211,0,4890
1666,99,244,0,4891
1677,133,285,0,4892
1687,174,331,0,4893
1695,219,382,0,4894
1701,264,433,0,4895
1705,306,483,0,4896
1705,341,529,0,4897
1704,367,568,0,4898
1700,384,599,0,4899
1694,392,621,0,4900
1688,394,634,0,4901
1681,394,640,0,4902
1674,397,641,0,4903
1655,433,638,0,4904
1643,475,641,0,4905
1629,537,648,0,4906
1615,621,663,0,4907
1601,723,685,0,4908
1587,840,714,0,4909
1575,967,748,0,4910
1567,1096,785,0,4911
1562,1221,823,0,4912
1560,1335,858,0,4913
1561,1433,889,0,4914
1565,1511,915,0,4915
1571,1568,934,0,4916
1576,1604,947,0,4917
1581,1623,955,0,4918
1586,1629,960,0,4919
1588,1629,963,0,4920
1590,1631,964,0,4921
1591,1639,965,0,4922
1592,1659,965,0,4923
1594,1696,965,0,4924
1596,1751,964,0,4925
1599,1825,960,0,4926
1603,1916,952,0,4927
1606,2020,939,0,4928
1609,2132,920,0,4929
1609,2246,895,0,4930
1607,2358,863,0,4931
1603,2463,825,0,4932
1596,2556,784,0,4933
1589,2634,742,0,4934
1582,2696,700,0,4935
1576,2743,662,0,4936
1571,2775,629,0,4937
1568,2795,603,0,4938
1565,2805,583,0,4939
1561,2808,572,0,4940
1553,2809,567,0,4941
1540,2808,566,0,4942
1520,2810,567,0,4943
1495,2815,564,0,4944
1467,2825,557,0,4945
1444,2839,541,0,4946
1433,2859,516,0,4947
1444,2881,481,0,4948
1487,2905,435,0,4949
1568,2929,380,0,4950
1692,2952,321,0,4951
1854,2973,259,0,4952
2045,2992,200,0,4953
2250,3007,145,0,4954
2449,3019,96,0,4955
2620,3028,56,0,4956
2745,3036,24,0,4957
2807,3042,-1,0,4958
2797,3046,-21,0,4959
2712,3047,-38,1,4960
2557,3043,-56,1,4961
2342,3033,-77,0,4962
2084,3014,-103,0,4963
1800,2988,-136,0,4964
1510,2954,-177,0,4965
1231,2914,-224,0,4966
981,2868,-277,0,4967
773,2824,-332,0,4968
616,2782,-388,0,4969
517,2747,-441,0,4970
475,2721,-489,0,4971
485,2705,-530,0,4972
539,2697,-562,0,4973
625,2695,-586,0,4974
729,2695,-602,0,4975
838,2692,-612,0,4976
941,2681,-618,0,4977
1031,2656,-623,0,4978
1107,2614,-630,0,4979
1170,2552,-641,0,4980
1225,2469,-658,0,4981
1278,2367,-681,0,4982
1333,2251,-710,0,4983
1395,2124,-744,0,4984
1464,1995,-782,0,4985
1537,1871,-818,0,4986
1609,1757,-853,0,4987
1676,1660,-884,0,4988
1732,1582,-909,0,4989
1773,1525,-928,0,4990
1798,1488,-941,0,4991
1807,1470,-949,0,4992
1803,1463,-954,0,4993
1790,1463,-956,0,4994
1772,1462,-958,0,4995
1753,1455,-959,0,4996
1737,1435,-960,0,4997
1725,1399,-960,0,4998
1718,1345,-959,0,4999
1716,1273,-955,0,5000
1717,1183,-947,0,5001
1719,1080,-934,0,5002
1722,970,-916,0,5003
1724,856,-890,0,5004
1725,746,-858,0,5005
1725,642,-822,0,5006
1724,550,-782,0,5007
1723,473,-740,0,5008
1723,411,-701,0,5009
1723,364,-664,0,5010
1725,332,-633,0,5011
1727,311,-608,0,5012
1730,301,-590,0,5013
1733,297,-579,0,5014
1735,296,-575,0,5015
1737,296,-574,0,5016
1736,294,-575,0,5017
1735,289,-575,0,5018
1733,279,-572,0,5019
1730,264,-564,0,5020
1727,245,-550,0,5021
1725,222,-528,0,5022
1723,197,-499,0,5023
1723,171,-464,0,5024
1724,145,-422,0,5025
1727,120,-378,0,5026
1731,97,-333,0,5027
1736,78,-289,0,5028
1742,62,-247,0,5029
1747,50,-210,0,5030
1752,41,-180,0,5031
1755,34,-154,0,5032
1756,30,-136,0,5033
1755,27,-122,0,5034
1752,26,-114,0,5035
1747,26,-110,0,5036
1742,26,-108,0,5037
1737,26,-108,0,5038
1733,26,-108,0,5039
1731,26,-107,0,5040
1731,25,-106,0,5041
1733,25,-102,0,5042
1738,25,-96,0,5043
1744,25,-88,0,5044
1750,25,-79,0,5045
1755,25,-69,0,5046
1760,25,-58,0,5047
1762,25,-48,0,5048
1763,26,-38,0,5049
1763,26,-29,0,5050
1762,27,-22,0,5051
1761,27,-15,0,5052
1761,27,-11,0,5053
1763,27,-8,0,5054
1766,27,-5,0,5055
1771,27,-4,0,5056
1777,27,-3,0,5057
1784,26,-3,0,5058
1792,26,-4,0,5059
1798,26,-4,0,5060
1804,26,-5,0,5061
1809,26,-5,0,5062
1812,26,-6,0,5063
1812,26,-6,0,5064
1812,26,-6,0,5065
1810,26,-6,0,5066
1807,25,-6,0,5067
1804,25,-6,0,5068
1802,25,-6,0,5069
1801,24,-6,0,5070
1801,23,-6,0,5071
1803,22,-6,0,5072
1806,21,-6,0,5073
1808,20,-7,0,5074
1811,19,-7,0,5075
1813,18,-6,0,5076
1814,16,-6,0,5077
1814,15,-6,0,5078
1813,14,-6,0,5079
1812,13,-6,0,5080
1811,12,-6,0,5081
1811,12,-6,0,5082
1812,11,-6,0,5083
1814,11,-6,0,5084
1816,11,-6,0,5085
1817,11,-6,0,5086
1816,11,-6,0,5087
1814,11,-6,0,5088
1809,11,-6,0,5089
1802,11,-5,0,5090
1794,11,-5,0,5091
1784,11,-5,0,5092
1776,12,-5,0,5093
1768,12,-4,0,5094
1762,12,-4,0,5095
1757,12,-4,0,5096
1753,12,-3,0,5097
1748,12,-3,0,5098
1743,12,-2,0,5099
1736,12,-2,0,5100
1728,12,-2,0,5101
1718,13,-1,0,5102
1706,13,-1,0,5103
1693,13,-1,0,5104
1679,13,-1,0,5105
1665,13,-1,0,5106
1651,13,-1,0,5107
1638,13,-1,0,5108
1625,13,-1,0,5109
1612,13,-1,0,5110
1600,13,-2,0,5111
1588,13,-2,0,5112
1577,13,-2,0,5113
1567,13,-2,0,5114
1558,13,-2,0,5115
1550,13,-3,0,5116
1543,12,-3,0,5117
1536,12,-3,0,5118
1530,12,-3,0,5119
1524,11,-3,0,5120
1518,11,-3,0,5121
1513,11,-3,0,5122
1508,10,-3,0,5123
1504,10,-3,0,5124
1501,9,-3,0,5125
1498,9,-3,0,5126
1497,9,-3,0,5127
1496,8,-3,0,5128
1496,8,-4,0,5129
1496,7,-4,0,5130
1495,7,-4,0,5131
1495,6,-4,0,5132
1494,6,-4,0,5133
1494,6,-4,0,5134
1494,6,-4,0,5135
1495,6,-4,0,5136
1497,6,-4,0,5137
1500,6,-4,0,5138
1503,6,-4,0,5139
1508,6,-3,0,5140
1512,6,-3,0,5141
1516,6,-3,0,5142
1519,6,-3,0,5143
1521,6,-3,0,5144
1522,6,-3,0,5145
1521,5,-2,0,5146
1518,5,-2,0,5147
1515,5,-2,0,5148
1512,5,-2,0,5149
1509,5,-2,0,5150
1507,5,-2,0,5151
1507,5,-2,0,5152
1508,5,-1,0,5153
1511,5,-1,0,5154
1515,5,-1,0,5155
1519,5,-1,0,5156
1524,5,-1,0,5157
1528,5,-1,0,5158
1533,5,-1,0,5159
1537,5,-1,0,5160
1540,5,-1,0,5161
1543,5,-1,0,5162
1545,5,-1,0,5163
1547,5,-1,0,5164
1549,5,-1,0,5165
1551,5,-1,0,5166
1552,5,-1,0,5167
1553,5,-1,0,5168
1553,5,0,0,5169
1554,5,0,0,5170
1554,5,0,0,5171
1554,5,0,0,5172
1553,5,0,0,5173
1553,5,0,0,5174
1553,5,0,0,5175
1552,4,0,0,5176
1552,4,1,0,5177
1552,4,1,0,5178
1552,4,1,0,5179
1553,4,1,0,5180
1553,4,1,0,5181
1553,4,1,0,5182
1554,4,1,0,5183
1554,4,1,0,5184
1555,5,1,0,5185
1556,5,1,0,5186
1557,5,1,0,5187
1559,6,1,0,5188
1559,6,1,0,5189
1560,6,1,0,5190
1561,7,1,0,5191
1561,7,1,0,5192
1561,7,1,0,5193
1561,8,1,0,5194
1562,8,1,0,5195
1563,8,1,0,5196
1564,8,1,0,5197
1564,8,1,0,5198
1565,8,1,0,5199
1565,8,1,0,5200
1564,8,1,0,5201
1563,8,1,0,5202
1562,8,1,0,5203
1561,8,1,0,5204
1560,8,1,0,5205
1560,8,1,0,5206
1562,8,1,0,5207
1564,8,0,0,5208
1568,8,0,0,5209
1572,8,0,0,5210
1576,8,0,0,5211
1579,8,0,0,5212
1581,8,0,0,5213
1582,8,0,0,5214
1581,8,-1,0,5215
1580,8,-1,0,5216
1577,8,-1,0,5217
1575,8,-1,0,5218
1573,8,-1,0,5219
1572,7,-1,0,5220
1573,7,-1,0,5221
1574,7,-1,0,5222
1576,7,-2,0,5223
1577,7,-2,0,5224
1579,7,-2,0,5225
1580,7,-2,0,5226
1581,7,-2,0,5227
1580,7,-2,0,5228
1580,7,-2,0,5229
1579,7,-2,0,5230
1578,7,-2,0,5231
1577,6,-2,0,5232
1576,6,-2,0,5233
1576,6,-2,0,5234
1576,6,-2,0,5235
1576,6,-1,0,5236
1577,6,-1,0,5237
1577,6,-1,0,5238
1578,6,-1,0,5239
1578,5,-1,0,5240
1579,5,-1,0,5241
1580,5,-1,0,5242
1581,5,-1,0,5243
1582,5,-1,0,5244
1584,5,-1,0,5245
1586,5,-1,0,5246
1587,5,-1,0,5247
1588,5,-1,0,5248
1589,5,-1,0,5249
1590,5,-1,0,5250
1590,5,-1,0,5251
1589,5,-2,0,5252
1589,6,-2,0,5253
1588,6,-2,0,5254
1589,6,-1,0,5255
1589,6,-1,0,5256
1591,6,-1,0,5257
1593,6,-1,0,5258
1595,6,-1,0,5259
1597,6,-1,0,5260
1599,6,-1,0,5261
1601,5,-1,0,5262
1601,5,-1,0,5263
1600,5,-1,0,5264
1599,5,-1,0,5265
1597,5,-1,0,5266
1596,5,-1,0,5267
1595,5,-1,0,5268
1595,4,-1,0,5269
1597,4,-1,0,5270
1599,4,-1,0,5271
1602,4,-1,0,5272
1606,4,-1,0,5273
1608,4,-1,0,5274
1610,4,-1,0,5275
1611,4,-1,0,5276
1611,4,-1,0,5277
1610,4,-1,0,5278
1608,4,-1,0,5279
1606,4,-1,0,5280
1605,4,-1,0,5281
1604,4,0,0,5282
1603,4,0,0,5283
1604,4,0,0,5284
1604,4,0,0,5285
1606,4,0,0,5286
1608,4,1,0,5287
1612,4,1,0,5288
1616,4,1,0,5289
1621,4,1,0,5290
1627,4,1,0,5291
1633,4,1,0,5292
1640,4,1,0,5293
1646,4,2,0,5294
1651,5,2,0,5295
1653,5,2,0,5296
1653,5,2,0,5297
1650,5,2,0,5298
1645,6,2,0,5299
1640,6,2,0,5300
1636,7,2,0,5301
1634,7,2,0,5302
1636,7,2,0,5303
1641,8,2,0,5304
1648,8,2,0,5305
1655,8,2,0,5306
1661,9,2,0,5307
1662,9,2,0,5308
1657,9,2,0,5309
1646,9,1,0,5310
1630,10,1,0,5311
1612,10,1,0,5312
1593,10,1,0,5313
1577,10,1,0,5314
1566,10,1,0,5315
1560,10,1,0,5316
1560,10,1,0,5317
1564,10,1,0,5318
1571,10,1,0,5319
1580,10,0,0,5320
1587,10,0,0,5321
1593,10,0,0,5322
1597,10,0,0,5323
1600,10,0,0,5324
1600,10,0,0,5325
1599,10,0,0,5326
1598,9,-1,0,5327
1595,9,-1,0,5328
1592,9,-1,0,5329
1589,9,-1,0,5330
1586,9,-1,0,5331
1585,9,-1,0,5332
1584,8,-1,0,5333
1585,8,-1,0,5334
1587,8,-1,0,5335
1590,8,-1,0,5336
1593,7,-1,0,5337
1595,7,-1,0,5338
1596,7,-1,0,5339
1596,7,-1,0,5340
1594,7,-1,0,5341
1591,7,-1,0,5342
1588,7,-1,0,5343
1584,7,-1,0,5344
1582,7,-1,0,5345
1581,7,-1,0,5346
1581,7,-1,0,5347
1584,7,-1,0,5348
1588,7,-1,0,5349
1592,8,0,0,5350
1597,8,0,0,5351
1601,8,0,0,5352
1603,8,0,0,5353
1604,8,0,0,5354
1603,9,0,0,5355
1602,9,0,0,5356
1600,9,0,0,5357
1599,9,0,0,5358
1599,9,0,0,5359
1599,9,1,0,5360
1600,9,3,0,5361
1603,9,4,0,5362
1605,9,5,0,5363
1608,9,6,0,5364
1611,9,7,0,5365
1614,9,7,0,5366
1618,10,7,0,5367
1622,10,7,0,5368
1626,10,8,0,5369
1630,9,11,0,5370
1635,9,16,0,5371
1638,9,25,0,5372
1641,9,36,0,5373
1642,9,51,0,5374
1641,9,70,0,5375
1640,10,89,0,5376
1638,12,109,0,5377
1635,15,126,0,5378
1633,18,141,0,5379
1631,21,153,0,5380
1630,24,160,0,5381
1629,25,164,0,5382
1629,25,165,0,5383
1630,25,165,0,5384
1632,25,166,0,5385
1635,28,171,0,5386
1641,35,181,0,5387
1648,49,199,0,5388
1657,71,226,0,5389
1667,100,261,0,5390
1677,138,304,0,5391
1687,184,353,0,5392
1695,232,406,0,5393
1701,281,460,0,5394
1704,326,512,0,5395
1705,364,560,0,5396
1703,393,601,0,5397
1699,411,633,0,5398
1694,420,655,0,5399
1688,422,669,0,5400
1681,422,675,0,5401
1674,425,676,0,5402
1665,438,675,0,5403
1643,509,677,0,5404
1630,575,686,0,5405
1615,664,701,0,5406
1601,771,724,0,5407
1587,893,753,0,5408
1576,1025,787,0,5409
1567,1160,825,0,5410
1562,1290,861,0,5411
1560,1410,897,0,5412
1562,1512,927,0,5413
1566,1592,951,0,5414
1571,1649,970,0,5415
1576,1686,983,0,5416
1581,1704,991,0,5417
1585,1710,995,0,5418
1588,1711,997,0,5419
1590,1712,997,0,5420
1592,1720,998,0,5421
1593,1742,999,0,5422
1595,1779,999,0,5423
1597,1836,997,0,5424
1600,1912,993,0,5425
1604,2005,985,0,5426
1607,2112,971,0,5427
1609,2226,951,0,5428
1609,2343,924,0,5429
1606,2457,890,0,5430
1602,2564,852,0,5431
1595,2659,809,0,5432
1588,2739,765,0,5433
1581,2804,723,0,5434
1575,2852,683,0,5435
1571,2886,649,0,5436
1568,2906,622,0,5437
1565,2916,604,0,5438
1560,2920,593,0,5439
1552,2920,589,0,5440
1537,2920,588,0,5441
1517,2922,587,0,5442
1491,2928,585,0,5443
1464,2939,576,0,5444
1443,2954,559,0,5445
1434,2975,532,0,5446
1448,2998,494,0,5447
1494,3024,445,0,5448
1577,3049,389,0,5449
1700,3075,327,0,5450
1860,3098,263,0,5451
2048,3118,201,0,5452
2249,3135,145,0,5453
2445,3149,95,0,5454
2615,3160,53,0,5455
2742,3170,20,0,5456
2808,3177,-6,0,5457
2804,3181,-26,0,5458
2726,3181,-45,1,5459
2576,3175,-63,1,5460
2365,3161,-85,0,5461
2107,3140,-113,0,5462
1820,3110,-148,0,5463
1523,3072,-191,0,5464
1238,3027,-240,0,5465
981,2979,-295,0,5466
767,2931,-353,0,5467
608,2886,-411,0,5468
508,2848,-467,0,5469
467,2820,-517,0,5470
480,2802,-560,0,5471
537,2793,-592,0,5472
625,2790,-617,0,5473
730,2790,-634,0,5474
839,2787,-644,0,5475
943,2775,-651,0,5476
1034,2749,-657,0,5477
1110,2704,-665,0,5478
1173,2638,-677,0,5479
1228,2550,-695,0,5480
1280,2444,-718,0,5481
1335,2323,-748,0,5482
1395,2191,-782,0,5483
1462,2057,-819,0,5484
1533,1927,-856,0,5485
1605,1808,-890,0,5486
1672,1706,-920,0,5487
1728,1626,-944,0,5488
1770,1569,-962,0,5489
1797,1533,-975,0,5490
1807,1514,-982,0,5491
1804,1508,-986,0,5492
1792,1508,-989,0,5493
1774,1507,-990,0,5494
1755,1499,-990,0,5495
1738,1478,-990,0,5496
1726,1441,-991,0,5497
1719,1386,-990,0,5498
1716,1311,-986,0,5499
1717,1220,-978,0,5500
1720,1114,-964,0,5501
1723,1002,-944,0,5502
1726,886,-917,0,5503
1727,774,-884,0,5504
1727,668,-846,0,5505
1727,574,-804,0,5506
1726,494,-761,0,5507
1725,431,-720,0,5508
1725,383,-682,0,5509
1727,349,-649,0,5510
1729,329,-624,0,5511
1731,318,-606,0,5512
1734,315,-596,0,5513
1736,314,-591,0,5514
1737,314,-590,0,5515
1737,312,-591,0,5516
1736,306,-591,0,5517
1734,295,-588,0,5518
1731,280,-580,0,5519
1729,259,-565,0,5520
1726,236,-543,0,5521
1725,209,-513,0,5522
1725,182,-476,0,5523
1726,155,-434,0,5524
1728,129,-390,0,5525
1732,105,-343,0,5526
1736,84,-298,0,5527
1741,68,-256,0,5528
1745,55,-218,0,5529
1749,45,-186,0,5530
1752,38,-160,0,5531
1752,34,-141,0,5532
1751,31,-127,0,5533
1749,30,-119,0,5534
1744,29,-115,0,5535
1740,29,-114,0,5536
1735,30,-113,0,5537
1731,30,-113,0,5538
1729,30,-112,0,5539
1729,30,-110,0,5540
1732,30,-106,0,5541
1736,29,-100,0,5542
1742,29,-92,0,5543
1748,29,-82,0,5544
1754,30,-72,0,5545
1759,30,-61,0,5546
1762,30,-50,0,5547
1763,31,-40,0,5548
1763,31,-30,0,5549
1762,32,-22,0,5550
1761,32,-15,0,5551
1761,32,-10,0,5552
1762,32,-7,0,5553
1766,32,-4,0,5554
1771,32,-3,0,5555
1778,32,-2,0,5556
1785,31,-3,0,5557
1792,31,-3,0,5558
1799,31,-4,0,5559
1805,31,-4,0,5560
1809,31,-5,0,5561
1811,31,-6,0,5562
1811,31,-6,0,5563
1810,32,-6,0,5564
1808,31,-6,0,5565
1805,31,-6,0,5566
1803,31,-6,0,5567
1801,31,-7,0,5568
1800,30,-7,0,5569
1800,29,-7,0,5570
1802,28,-7,0,5571
1804,27,-7,0,5572
1807,26,-8,0,5573
1809,24,-8,0,5574
1811,23,-7,0,5575
1812,21,-7,0,5576
1812,20,-7,0,5577
1811,18,-7,0,5578
1810,17,-7,0,5579
1809,16,-7,0,5580
1809,15,-7,0,5581
1811,15,-6,0,5582
1813,14,-6,0,5583
1815,14,-6,0,5584
1816,14,-6,0,5585
1816,14,-6,0,5586
1813,14,-7,0,5587
1808,14,-6,0,5588
1801,14,-6,0,5589
1792,14,-6,0,5590
1783,14,-6,0,5591
1774,15,-6,0,5592
1766,15,-6,0,5593
1760,15,-5,0,5594
1755,15,-5,0,5595
1751,15,-4,0,5596
1747,15,-4,0,5597
1742,15,-4,0,5598
1736,16,-3,0,5599
1728,16,-3,0,5600
1718,16,-2,0,5601
1706,16,-2,0,5602
1693,16,-2,0,5603
1680,16,-1,0,5604
1666,16,-2,0,5605
1653,16,-1,0,5606
1639,17,-2,0,5607
1626,16,-2,0,5608
1613,16,-2,0,5609
1600,16,-2,0,5610
1588,16,-2,0,5611
1577,16,-2,0,5612
1567,16,-2,0,5613
1557,15,-3,0,5614
1549,15,-3,0,5615
1542,15,-3,0,5616
1535,14,-4,0,5617
1529,14,-4,0,5618
1524,14,-4,0,5619
1519,13,-4,0,5620
1514,13,-4,0,5621
1509,12,-4,0,5622
1505,12,-4,0,5623
1501,11,-4,0,5624
1499,11,-4,0,5625
1497,11,-4,0,5626
1495,10,-4,0,5627
1494,10,-4,0,5628
1494,9,-4,0,5629
1494,9,-4,0,5630
1494,8,-4,0,5631
1494,8,-4,0,5632
1494,8,-4,0,5633
1495,7,-4,0,5634
1496,7,-4,0,5635
1498,7,-4,0,5636
1501,7,-4,0,5637
1505,7,-4,0,5638
1509,7,-4,0,5639
1513,7,-4,0,5640
1517,7,-4,0,5641
1520,7,-4,0,5642
1522,7,-4,0,5643
1523,7,-4,0,5644
1522,7,-3,0,5645
1520,7,-3,0,5646
1516,7,-3,0,5647
1513,7,-3,0,5648
1510,6,-3,0,5649
1508,6,-3,0,5650
1508,6,-3,0,5651
1509,6,-2,0,5652
1512,6,-3,0,5653
1515,6,-2,0,5654
1520,6,-2,0,5655
1524,6,-2,0,5656
1529,6,-2,0,5657
1533,6,-2,0,5658
1537,5,-2,0,5659
1541,5,-2,0,5660
1543,5,-2,0,5661
1546,5,-2,0,5662
1548,5,-2,0,5663
1550,5,-2,0,5664
1551,4,-2,0,5665
1552,4,-2,0,5666
1553,4,-2,0,5667
1554,4,-2,0,5668
1554,4,-2,0,5669
1554,3,-2,0,5670
1554,3,-2,0,5671
1554,3,-2,0,5672
1553,3,-2,0,5673
1553,3,-2,0,5674
1553,2,-2,0,5675
1553,2,-2,0,5676
1553,2,-2,0,5677
1553,2,-2,0,5678
1553,2,-2,0,5679
1553,2,-2,0,5680
1553,2,-2,0,5681
1553,2,-2,0,5682
1554,2,-2,0,5683
1555,2,-2,0,5684
1556,2,-2,0,5685
1557,2,-2,0,5686
1558,2,-2,0,5687
1559,2,-2,0,5688
1559,2,-2,0,5689
1560,2,-2,0,5690
1560,2,-2,0,5691
1560,2,-2,0,5692
1560,2,-1,0,5693
1561,2,-1,0,5694
1561,2,-1,0,5695
1563,2,-1,0,5696
1564,2,-1,0,5697
1564,2,-1,0,5698
1565,2,-1,0,5699
1564,1,-1,0,5700
1563,1,-1,0,5701
1562,1,-1,0,5702
1561,1,-1,0,5703
1560,1,-1,0,5704
1560,1,-1,0,5705
1561,1,-1,0,5706
1564,1,-1,0,5707
1568,1,-1,0,5708
1572,1,-1,0,5709
1576,1,-1,0,5710
1579,1,-1,0,5711
1581,1,-1,0,5712
1582,1,-1,0,5713
1581,1,-1,0,5714
1579,1,-1,0,5715
1577,1,0,0,5716
1574,1,0,0,5717
1573,1,0,0,5718
1572,1,0,0,5719
1572,1,0,0,5720
1573,1,0,0,5721
1575,1,0,0,5722
1577,1,0,0,5723
1578,1,0,0,5724
1579,1,0,0,5725
1580,1,0,0,5726
1580,1,0,0,5727
1579,1,0,0,5728
1578,1,0,0,5729
1577,1,0,0,5730
1576,1,0,0,5731
1576,1,0,0,5732
1576,2,0,0,5733
1576,2,0,0,5734
1577,2,0,0,5735
1577,2,0,0,5736
1577,2,0,0,5737
1578,2,0,0,5738
1578,2,0,0,5739
1578,2,0,0,5740
1579,2,0,0,5741
1580,2,0,0,5742
1581,2,0,0,5743
1582,2,0,0,5744
1584,2,0,0,5745
1586,2,0,0,5746
1588,2,0,0,5747
1589,2,0,0,5748
1590,2,0,0,5749
1590,2,0,0,5750
1590,2,0,0,5751
1589,2,0,0,5752
1589,2,0,0,5753
1589,2,0,0,5754
1590,2,0,0,5755
1591,2,0,0,5756
1593,2,0,0,5757
1595,2,0,0,5758
1597,2,0,0,5759
1599,2,0,0,5760
1600,2,0,0,5761
1600,2,0,0,5762
1599,2,0,0,5763
1598,2,0,0,5764
1597,2,0,0,5765
1596,2,0,0,5766
1595,2,0,0,5767
1596,2,0,0,5768
1598,2,0,0,5769
1600,2,0,0,5770
1603,2,0,0,5771
1606,2,0,0,5772
1609,2,0,0,5773
1610,2,-1,0,5774
1611,2,-1,0,5775
1610,2,-1,0,5776
1609,2,-1,0,5777
1608,2,-1,0,5778
1606,2,-1,0,5779
1605,2,-1,0,5780
1604,2,-1,0,5781
1604,2,-1,0,5782
1604,2,-1,0,5783
1605,2,-1,0,5784
1606,2,-1,0,5785
1609,2,-1,0,5786
1612,2,-1,0,5787
1616,2,-1,0,5788
1621,2,-1,0,5789
1628,2,-1,0,5790
1635,1,-1,0,5791
1642,1,-1,0,5792
1648,1,-1,0,5793
1652,1,-1,0,5794
1654,1,-1,0,5795
1654,1,-1,0,5796
1650,1,-1,0,5797
1645,1,-1,0,5798
1640,1,-1,0,5799
1636,1,-1,0,5800
1634,1,-1,0,5801
1636,1,-1,0,5802
1641,1,-1,0,5803
1648,1,-1,0,5804
1655,1,-1,0,5805
1660,1,-1,0,5806
1661,1,-1,0,5807
1656,1,-1,0,5808
1645,1,-1,0,5809
1630,1,-1,0,5810
1611,0,-1,0,5811
1593,0,-1,0,5812
1577,0,-1,0,5813
1566,0,-1,0,5814
1560,0,-1,0,5815
1560,0,-1,0,5816
1565,0,-1,0,5817
1572,0,0,0,5818
1580,0,0,0,5819
1588,0,0,0,5820
1594,0,0,0,5821
1598,0,0,0,5822
1601,0,0,0,5823
1601,0,0,0,5824
1600,0,0,0,5825
1598,0,0,0,5826
1595,0,0,0,5827
1592,0,0,0,5828
1589,0,0,0,5829
1586,0,0,0,5830
1584,0,0,0,5831
1584,0,0,0,5832
1585,0,0,0,5833
1587,0,0,0,5834
1590,1,0,0,5835
1593,1,0,0,5836
1595,1,0,0,5837
1597,1,0,0,5838
1597,1,0,0,5839
1595,1,0,0,5840
1592,1,0,0,5841
1588,1,0,0,5842
1584,1,0,0,5843
1582,1,0,0,5844
1580,1,0,0,5845
1581,1,0,0,5846
1584,1,0,0,5847
1588,1,0,0,5848
1592,1,1,0,5849
1597,1,1,0,5850
1601,1,1,0,5851
1603,1,1,0,5852
1604,1,1,0,5853
1603,1,1,0,5854
1602,1,1,0,5855
1600,1,1,0,5856
1599,1,2,0,5857
1599,1,2,0,5858
1599,1,4,0,5859
1600,1,5,0,5860
1602,2,7,0,5861
1605,2,9,0,5862
1607,2,11,0,5863
1610,2,12,0,5864
1613,2,13,0,5865
1617,3,13,0,5866
1621,3,13,0,5867
1626,3,13,0,5868
1631,3,16,0,5869
1636,3,21,0,5870
1639,3,29,0,5871
1642,3,40,0,5872
1643,4,55,0,5873
1642,6,72,0,5874
1640,8,91,0,5875
1638,12,111,0,5876
1636,16,129,0,5877
1634,21,144,0,5878
1632,26,156,0,5879
1630,30,163,0,5880
1629,33,167,0,5881
1629,34,168,0,5882
1630,34,168,0,5883
1631,34,169,0,5884
1634,36,173,0,5885
1640,42,183,0,5886
1647,54,200,0,5887
1656,74,225,0,5888
1666,102,258,0,5889
1677,139,300,0,5890
1687,183,348,0,5891
1696,231,400,0,5892
1702,280,453,0,5893
1705,325,503,0,5894
1705,363,550,0,5895
1703,392,590,0,5896
1699,410,621,0,5897
1694,420,643,0,5898
1689,422,656,0,5899
1682,422,662,0,5900
1674,425,663,0,5901
1655,461,659,0,5902
1643,503,662,0,5903
1630,566,670,0,5904
1615,650,685,0,5905
1600,755,708,0,5906
1587,874,737,0,5907
1575,1004,772,0,5908
1567,1136,810,0,5909
1562,1263,848,0,5910
1561,1380,883,0,5911
1562,1480,915,0,5912
1566,1560,940,0,5913
1571,1617,959,0,5914
1577,1654,971,0,5915
1582,1672,979,0,5916
1586,1679,983,0,5917
1589,1679,985,0,5918
1590,1680,986,0,5919
1592,1689,986,0,5920
1593,1710,987,0,5921
1594,1748,987,0,5922
1597,1805,985,0,5923
1600,1881,982,0,5924
1603,1974,974,0,5925
1606,2081,962,0,5926
1608,2195,943,0,5927
1608,2312,917,0,5928
1606,2427,885,0,5929
1601,2534,847,0,5930
1595,2629,806,0,5931
1588,2709,763,0,5932
1581,2773,721,0,5933
1575,2822,683,0,5934
1571,2855,649,0,5935
1568,2876,623,0,5936
1565,2886,605,0,5937
1560,2890,593,0,5938
1552,2890,589,0,5939
1539,2890,587,0,5940
1519,2892,587,0,5941
1494,2898,585,0,5942
1466,2909,577,0,5943
1443,2924,561,0,5944
1432,2944,534,0,5945
1444,2968,497,0,5946
1487,2994,449,0,5947
1568,3020,392,0,5948
1690,3045,330,0,5949
1851,3068,267,0,5950
2040,3088,205,0,5951
2243,3105,148,0,5952
2442,3119,98,0,5953
2615,3130,56,0,5954
2743,3139,23,0,5955
2809,3145,-2,0,5956
2804,3149,-23,0,5957
2723,3149,-41,1,5958
2570,3144,-59,1,5959
2356,3132,-80,0,5960
2095,3113,-106,0,5961
1806,3084,-140,0,5962
1509,3048,-182,0,5963
1225,3004,-230,0,5964
970,2956,-284,0,5965
760,2908,-341,0,5966
604,2863,-398,0,5967
507,2826,-452,0,5968
468,2798,-502,0,5969
482,2780,-544,0,5970
539,2771,-578,0,5971
625,2769,-602,0,5972
729,2769,-619,0,5973
836,2766,-630,0,5974
938,2754,-636,0,5975
1027,2730,-642,0,5976
1102,2687,-650,0,5977
1165,2625,-662,0,5978
1220,2541,-679,0,5979
1273,2437,-703,0,5980
1328,2318,-732,0,5981
1390,2189,-767,0,5982
1458,2057,-804,0,5983
