value,sample number
1937,0
1959,1
2010,2
2070,3
2103,4
2097,5
2067,6
2025,7
1987,8
1974,9
1998,10
2023,11
2035,12
2029,13
2018,14
2011,15
2006,16
1994,17
1964,18
1931,19
1913,20
1925,21
1959,22
2003,23
2038,24
2053,25
2040,26
2022,27
2014,28
2023,29
2033,30
2034,31
2027,32
2003,33
1975,34
1961,35
1970,36
1997,37
2026,38
2029,39
2004,40
1973,41
1950,42
1950,43
1971,44
1993,45
1989,46
1970,47
1951,48
1948,49
1969,50
2006,51
2037,52
2047,53
2051,54
2050,55
2060,56
2081,57
2100,58
2113,59
2076,60
2075,61
2067,62
2066,63
2073,64
2093,65
2126,66
2146,67
2146,68
2143,69
2151,70
2167,71
2186,72
2195,73
2180,74
2135,75
2085,76
2047,77
2039,78
2062,79
2094,80
2115,81
2125,82
2123,83
2114,84
2089,85
2056,86
2012,87
1972,88
1950,89
1969,90
1947,91
1935,92
1959,93
2006,94
2047,95
2054,96
2026,97
1991,98
1972,99
1990,100
2038,101
2078,102
2079,103
2051,104
2011,105
1977,106
1951,107
1943,108
1930,109
1915,110
1913,111
1937,112
1995,113
2101,114
2244,115
2397,116
2547,117
2670,118
2777,119
2169,120
1965,121
1758,122
1539,123
1345,124
1222,125
1180,126
1219,127
1322,128
1454,129
1572,130
1643,131
1654,132
1634,133
1621,134
1633,135
1673,136
1734,137
1802,138
1869,139
1938,140
2014,141
2088,142
2152,143
2195,144
2191,145
2137,146
2074,147
2033,148
2018,149
2091,150
2130,151
2151,152
2142,153
2123,154
2119,155
2139,156
2169,157
2187,158
2174,159
2139,160
2102,161
2075,162
2074,163
2103,164
2140,165
2166,166
2187,167
2203,168
2220,169
2227,170
2218,171
2187,172
2137,173
2089,174
2065,175
2068,176
2105,177
2159,178
2194,179
2250,180
2238,181
2199,182
2159,183
2155,184
2187,185
2238,186
2277,187
2277,188
2246,189
2210,190
2200,191
2225,192
2265,193
2289,194
2276,195
2245,196
2225,197
2229,198
2238,199
2247,200
2231,201
2190,202
2146,203
2127,204
2146,205
2189,206
2228,207
2237,208
2217,209
2221,210
2198,211
2178,212
2172,213
2181,214
2185,215
2173,216
2140,217
2107,218
2101,219
2123,220
2157,221
2178,222
2161,223
2119,224
2078,225
2059,226
2060,227
2082,228
2094,229
2078,230
2041,231
2012,232
2010,233
2029,234
2051,235
2039,236
1993,237
1942,238
1908,239
1908,240
1917,241
1947,242
1981,243
1991,244
1973,245
1948,246
1935,247
1941,248
1961,249
1977,250
1978,251
1965,252
1954,253
1962,254
1990,255
2023,256
2033,257
2009,258
1969,259
1940,260
1944,261
1982,262
2039,263
2089,264
2098,265
2077,266
2027,267
1977,268
1939,269
1917,270
1953,271
1974,272
1969,273
1947,274
1934,275
1947,276
1989,277
2036,278
2063,279
2051,280
2011,281
1969,282
1945,283
1949,284
1975,285
2005,286
2022,287
2027,288
2023,289
2027,290
2052,291
2067,292
2057,293
2035,294
2019,295
2022,296
2031,297
2022,298
1978,299
1969,300
2023,301
2046,302
2039,303
2015,304
1994,305
1981,306
1975,307
1960,308
1941,309
1940,310
1965,311
2003,312
2035,313
2051,314
2038,315
2011,316
1993,317
1997,318
2031,319
2078,320
2107,321
2111,322
2099,323
2077,324
2045,325
2014,326
1983,327
1955,328
1937,329
1955,330
1918,331
1912,332
1938,333
1975,334
2010,335
2021,336
2012,337
2003,338
2003,339
2017,340
2037,341
2044,342
2031,343
2012,344
2003,345
2021,346
2058,347
2096,348
2119,349
2120,350
2103,351
2091,352
2095,353
2117,354
2128,355
2102,356
2059,357
2018,358
2005,359
2057,360
2029,361
2012,362
2013,363
2029,364
2043,365
2052,366
2056,367
2065,368
2065,369
2065,370
2059,371
2047,372
2040,373
2052,374
2083,375
2119,376
2147,377
2148,378
2123,379
2097,380
2083,381
2090,382
2109,383
2114,384
2097,385
2074,386
2058,387
2065,388
2087,389
1965,390
1994,391
2018,392
2011,393
1982,394
1953,395
1939,396
1949,397
1973,398
1994,399
1996,400
1990,401
1989,402
2003,403
2028,404
2054,405
2057,406
2036,407
2011,408
2005,409
2021,410
2039,411
2039,412
2006,413
1956,414
1929,415
1964,416
2074,417
2243,418
2441,419
2810,420
2605,421
2374,422
2138,423
1917,424
1715,425
1512,426
1335,427
1222,428
1191,429
1222,430
1298,431
1393,432
1476,433
1516,434
1509,435
1490,436
1492,437
1541,438
1625,439
1721,440
1823,441
1917,442
1998,443
2057,444
2085,445
2090,446
2078,447
2062,448
2046,449
2173,450
2147,451
2125,452
2125,453
2139,454
2154,455
2156,456
2141,457
2124,458
2118,459
2130,460
2156,461
2185,462
2194,463
2197,464
2201,465
2209,466
2215,467
2222,468
2211,469
2174,470
2134,471
2108,472
2099,473
2114,474
2137,475
2139,476
2124,477
2106,478
2105,479
2154,480
2143,481
2154,482
2183,483
2202,484
2198,485
2181,486
2181,487
2201,488
2228,489
2243,490
2225,491
2182,492
2151,493
2153,494
2191,495
2249,496
2293,497
2301,498
2278,499
2237,500
2209,501
2211,502
2235,503
2254,504
2243,505
2217,506
2197,507
2193,508
2199,509
2210,510
2246,511
2268,512
2261,513
2233,514
2209,515
2204,516
2219,517
2243,518
2248,519
2219,520
2172,521
2134,522
2126,523
2151,524
2180,525
2179,526
2151,527
2109,528
2081,529
2073,530
2075,531
2062,532
2023,533
1977,534
1942,535
1934,536
1950,537
1983,538
2013,539
1973,540
1968,541
1957,542
1944,543
1935,544
1935,545
1944,546
1961,547
1972,548
1983,549
1995,550
2005,551
1999,552
1966,553
1917,554
1874,555
1857,556
1873,557
1908,558
1947,559
1973,560
1975,561
1956,562
1926,563
1899,564
1891,565
1901,566
1914,567
1919,568
1916,569
1955,570
1941,571
1934,572
1939,573
1955,574
1978,575
1988,576
1982,577
1983,578
2002,579
2025,580
2043,581
2043,582
2010,583
1961,584
1924,585
1918,586
1948,587
1999,588
2033,589
2029,590
1994,591
1951,592
1926,593
1926,594
1941,595
1951,596
1949,597
1942,598
1948,599
1951,600
1959,601
1993,602
2031,603
2045,604
2027,605
1987,606
1942,607
1925,608
1946,609
1981,610
2003,611
2003,612
1999,613
2009,614
2042,615
2093,616
2133,617
2139,618
2117,619
2076,620
2037,621
2022,622
2028,623
2030,624
2011,625
1986,626
1962,627
1956,628
1971,629
2027,630
2071,631
2104,632
2105,633
2076,634
2028,635
1988,636
1980,637
1998,638
2026,639
2046,640
2055,641
2057,642
2063,643
2078,644
2093,645
2088,646
2063,647
2020,648
1987,649
1982,650
2006,651
2041,652
2059,653
2057,654
2047,655
2052,656
2070,657
2099,658
2109,659
1997,660
2018,661
2040,662
2062,663
2079,664
2095,665
2110,666
2116,667
2109,668
2099,669
2092,670
2094,671
2114,672
2141,673
2153,674
2139,675
2110,676
2081,677
2065,678
2074,679
2108,680
2137,681
2145,682
2131,683
2101,684
2066,685
2026,686
1998,687
1969,688
1941,689
2092,690
2058,691
1999,692
1951,693
1929,694
1922,695
1903,696
1887,697
1893,698
1922,699
1962,700
2009,701
2036,702
2023,703
1983,704
1946,705
1932,706
1947,707
1986,708
2005,709
1995,710
1967,711
1961,712
1991,713
2057,714
2154,715
2265,716
2382,717
2510,718
2648,719
2395,720
2185,721
1988,722
1797,723
1582,724
1372,725
1227,726
1181,727
1221,728
1307,729
1393,730
1442,731
1465,732
1476,733
1491,734
1542,735
1623,736
1705,737
1759,738
1788,739
1812,740
1855,741
1927,742
2001,743
2056,744
2083,745
2108,746
2147,747
2195,748
2235,749
2030,750
2059,751
2091,752
2111,753
2135,754
2160,755
2189,756
2213,757
2228,758
2228,759
2211,760
2191,761
2181,762
2182,763
2197,764
2215,765
2216,766
2205,767
2201,768
2221,769
2254,770
2290,771
2309,772
2297,773
2273,774
2250,775
2244,776
2250,777
2264,778
2271,779
2332,780
2378,781
2369,782
2318,783
2251,784
2199,785
2181,786
2181,787
2171,788
2149,789
2125,790
2116,791
2124,792
2147,793
2166,794
2167,795
2153,796
2134,797
2123,798
2124,799
2135,800
2140,801
2122,802
2093,803
2082,804
2106,805
2163,806
2215,807
2227,808
2210,809
2165,810
2157,811
2154,812
2178,813
2220,814
2270,815
2297,816
2295,817
2271,818
2242,819
2223,820
2229,821
2243,822
2238,823
2217,824
2185,825
2166,826
2175,827
2201,828
2215,829
2203,830
2173,831
2140,832
2113,833
2094,834
2084,835
2070,836
2046,837
2028,838
2027,839
1993,840
1992,841
1989,842
1981,843
1960,844
1927,845
1893,846
1874,847
1880,848
1909,849
1945,850
1962,851
1959,852
1951,853
1950,854
1962,855
1983,856
2000,857
1991,858
1960,859
1927,860
1909,861
1917,862
1948,863
1981,864
1993,865
1988,866
1976,867
1967,868
1955,869
1950,870
1969,871
1972,872
1944,873
1895,874
1853,875
1831,876
1837,877
1861,878
1886,879
1898,880
1900,881
1898,882
1907,883
1925,884
1947,885
1955,886
1942,887
1927,888
1932,889
1958,890
1991,891
2012,892
2006,893
1981,894
1959,895
1950,896
1951,897
1955,898
1935,899
1947,900
1966,901
1961,902
1933,903
1915,904
1922,905
1948,906
1970,907
1966,908
1943,909
1925,910
1931,911
1961,912
1993,913
2005,914
1989,915
1965,916
1951,917
1957,918
1979,919
2004,920
2004,921
1979,922
1950,923
1931,924
1932,925
1955,926
1987,927
2015,928
2027,929
2058,930
2035,931
2022,932
2037,933
2087,934
2152,935
2196,936
2207,937
2197,938
2171,939
2151,940
2146,941
2140,942
2111,943
2072,944
2045,945
2054,946
2089,947
2138,948
2174,949
2181,950
2173,951
2167,952
2180,953
2204,954
2232,955
2237,956
2209,957
2167,958
2131,959
2182,960
2163,961
2135,962
2098,963
2054,964
2008,965
1989,966
1995,967
2027,968
2068,969
2092,970
2094,971
2070,972
2031,973
1999,974
1980,975
1983,976
1999,977
2003,978
1991,979
1972,980
1951,981
1938,982
1937,983
1935,984
1923,985
1905,986
1895,987
1903,988
1931,989
1901,990
1935,991
2009,992
2116,993
2243,994
2385,995
2529,996
2662,997
2765,998
2773,999
2651,1000
2479,1001
2295,1002
2118,1003
1963,1004
1807,1005
1607,1006
1386,1007
1212,1008
1138,1009
1168,1010
1250,1011
1333,1012
1393,1013
1426,1014
1441,1015
1459,1016
1511,1017
1593,1018
1674,1019
2027,1020
2060,1021
2055,1022
2036,1023
2026,1024
2038,1025
2069,1026
2101,1027
2115,1028
2107,1029
2093,1030
2091,1031
2108,1032
2139,1033
2161,1034
2158,1035
2145,1036
2126,1037
2122,1038
2137,1039
2163,1040
2175,1041
2164,1042
2143,1043
2127,1044
2129,1045
2147,1046
2163,1047
2155,1048
2131,1049
2217,1050
2191,1051
2161,1052
2143,1053
2148,1054
2170,1055
2187,1056
2193,1057
2193,1058
2203,1059
2238,1060
2291,1061
2337,1062
2351,1063
2331,1064
2283,1065
2243,1066
2226,1067
2233,1068
2235,1069
2219,1070
2183,1071
2141,1072
2118,1073
2123,1074
2145,1075
2165,1076
2183,1077
2199,1078
2218,1079
2101,1080
2094,1081
2118,1082
2162,1083
2201,1084
2214,1085
2204,1086
2184,1087
2175,1088
2189,1089
2211,1090
2214,1091
2194,1092
2170,1093
2150,1094
2153,1095
2175,1096
2197,1097
2195,1098
2171,1099
2151,1100
2161,1101
2202,1102
2253,1103
2267,1104
2211,1105
2118,1106
2028,1107
1987,1108
2002,1109
2053,1110
2052,1111
2058,1112
2053,1113
2028,1114
1998,1115
1985,1116
1999,1117
2026,1118
2050,1119
2050,1120
2025,1121
1987,1122
1957,1123
1948,1124
1956,1125
1959,1126
1953,1127
1946,1128
1937,1129
1929,1130
1923,1131
1917,1132
1908,1133
1890,1134
1874,1135
1875,1136
1895,1137
1924,1138
1950,1139
1941,1140
1961,1141
1971,1142
1974,1143
1980,1144
1993,1145
2011,1146
2023,1147
2009,1148
1969,1149
1933,1150
1926,1151
1955,1152
1999,1153
2023,1154
2017,1155
1995,1156
1976,1157
1980,1158
2004,1159
2029,1160
2036,1161
2017,1162
1985,1163
1967,1164
1976,1165
2009,1166
2043,1167
2058,1168
2045,1169
2028,1170
2015,1171
2003,1172
2005,1173
2027,1174
2062,1175
2075,1176
2058,1177
2020,1178
1990,1179
1979,1180
1983,1181
1997,1182
1998,1183
1987,1184
1972,1185
1964,1186
1972,1187
1990,1188
1997,1189
1979,1190
1961,1191
1950,1192
1954,1193
1973,1194
1998,1195
2003,1196
1985,1197
1966,1198
1960,1199
2002,1200
1996,1201
1999,1202
2012,1203
2021,1204
2015,1205
2010,1206
2007,1207
2011,1208
2022,1209
2029,1210
2015,1211
1993,1212
1975,1213
1970,1214
1987,1215
2017,1216
2046,1217
2059,1218
2054,1219
2033,1220
2012,1221
2011,1222
2037,1223
2065,1224
2077,1225
2073,1226
2066,1227
2069,1228
2079,1229
2062,1230
2103,1231
2140,1232
2150,1233
2136,1234
2119,1235
2137,1236
2191,1237
2237,1238
2237,1239
2174,1240
2071,1241
1983,1242
1956,1243
1987,1244
2030,1245
2033,1246
1988,1247
1931,1248
1892,1249
1867,1250
1852,1251
1843,1252
1821,1253
1789,1254
1773,1255
1786,1256
1826,1257
1868,1258
1889,1259
2001,1260
2050,1261
2078,1262
2087,1263
2079,1264
2067,1265
2047,1266
2022,1267
1986,1268
1950,1269
1926,1270
1922,1271
1937,1272
1966,1273
1978,1274
1953,1275
1901,1276
1851,1277
1842,1278
1887,1279
1987,1280
2121,1281
2273,1282
2444,1283
2627,1284
2797,1285
2949,1286
3022,1287
2955,1288
2765,1289
1353,1290
1203,1291
1141,1292
1166,1293
1242,1294
1349,1295
1446,1296
1514,1297
1550,1298
1588,1299
1638,1300
1694,1301
1744,1302
1779,1303
1815,1304
1867,1305
1943,1306
2028,1307
2110,1308
2172,1309
2203,1310
2207,1311
2199,1312
2190,1313
2188,1314
2201,1315
2215,1316
2221,1317
2222,1318
2232,1319
2291,1320
2247,1321
2211,1322
2182,1323
2159,1324
2135,1325
2114,1326
2105,1327
2120,1328
2157,1329
2207,1330
2239,1331
2239,1332
2219,1333
2199,1334
2200,1335
2221,1336
2249,1337
2266,1338
2276,1339
2278,1340
2276,1341
2273,1342
2261,1343
2229,1344
2186,1345
2153,1346
2161,1347
2219,1348
2296,1349
2137,1350
2170,1351
2219,1352
2242,1353
2222,1354
2178,1355
2141,1356
2131,1357
2154,1358
2181,1359
2189,1360
2183,1361
2186,1362
2212,1363
2248,1364
2273,1365
2265,1366
2228,1367
2191,1368
2171,1369
2169,1370
2172,1371
2170,1372
2142,1373
2106,1374
2079,1375
2082,1376
2111,1377
2153,1378
2181,1379
2099,1380
2107,1381
2105,1382
2100,1383
2102,1384
2115,1385
2141,1386
2165,1387
2159,1388
2129,1389
2087,1390
2055,1391
2041,1392
2053,1393
2061,1394
2058,1395
2047,1396
2034,1397
2023,1398
2019,1399
2022,1400
2025,1401
2021,1402
2015,1403
2013,1404
2022,1405
2036,1406
2040,1407
2011,1408
1957,1409
1962,1410
1967,1411
1954,1412
1951,1413
1970,1414
1996,1415
2006,1416
1987,1417
1953,1418
1927,1419
1933,1420
1971,1421
2018,1422
2047,1423
2055,1424
2037,1425
2010,1426
1983,1427
1973,1428
1970,1429
1966,1430
1962,1431
1963,1432
1976,1433
2004,1434
2040,1435
2062,1436
2054,1437
2021,1438
1981,1439
2009,1440
2001,1441
1995,1442
1986,1443
1971,1444
1949,1445
1929,1446
1914,1447
1921,1448
1953,1449
1995,1450
2015,1451
2001,1452
1965,1453
1932,1454
1924,1455
1939,1456
1966,1457
1981,1458
1979,1459
1969,1460
1965,1461
1973,1462
1989,1463
1993,1464
1974,1465
1949,1466
1937,1467
1957,1468
2004,1469
1973,1470
1979,1471
2001,1472
2020,1473
2022,1474
2009,1475
2004,1476
2010,1477
2020,1478
2025,1479
2007,1480
1975,1481
1957,1482
1964,1483
1989,1484
2014,1485
2025,1486
2013,1487
1991,1488
1987,1489
2010,1490
2051,1491
2086,1492
2083,1493
2029,1494
1961,1495
1915,1496
1909,1497
1941,1498
1979,1499
2100,1500
2098,1501
2061,1502
2003,1503
1951,1504
1929,1505
1939,1506
1977,1507
2011,1508
2027,1509
2036,1510
2043,1511
2039,1512
2036,1513
2034,1514
2021,1515
2005,1516
1999,1517
2009,1518
2035,1519
2073,1520
2097,1521
2098,1522
2091,1523
2095,1524
2129,1525
2180,1526
2217,1527
2214,1528
2175,1529
2170,1530
2151,1531
2125,1532
2111,1533
2118,1534
2138,1535
2151,1536
2149,1537
2132,1538
2116,1539
2118,1540
2134,1541
2151,1542
2149,1543
2126,1544
2099,1545
2084,1546
2087,1547
2097,1548
2093,1549
2069,1550
2031,1551
1997,1552
1990,1553
2011,1554
2041,1555
2055,1556
2029,1557
1987,1558
1958,1559
1957,1560
1942,1561
1951,1562
1971,1563
1991,1564
1989,1565
1961,1566
1923,1567
1897,1568
1890,1569
1903,1570
1937,1571
1983,1572
2057,1573
2173,1574
2343,1575
2545,1576
2737,1577
2886,1578
2961,1579
2915,1580
2770,1581
2606,1582
2443,1583
2261,1584
2051,1585
1807,1586
1533,1587
1305,1588
1174,1589
1332,1590
1415,1591
1494,1592
1554,1593
1599,1594
1649,1595
1730,1596
1836,1597
1948,1598
2043,1599
2090,1600
2085,1601
2066,1602
2066,1603
2089,1604
2125,1605
2153,1606
2157,1607
2148,1608
2140,1609
2149,1610
2175,1611
2203,1612
2215,1613
2207,1614
2188,1615
2171,1616
2164,1617
2164,1618
2164,1619
2204,1620
2227,1621
2219,1622
2182,1623
2137,1624
2107,1625
2098,1626
2093,1627
2079,1628
2067,1629
2065,1630
2082,1631
2102,1632
2111,1633
2094,1634
2058,1635
2027,1636
2023,1637
2050,1638
2098,1639
2153,1640
2191,1641
2195,1642
2170,1643
2139,1644
2120,1645
2124,1646
2153,1647
2181,1648
2196,1649
2349,1650
2312,1651
2270,1652
2253,1653
2275,1654
2331,1655
2379,1656
2395,1657
2382,1658
2355,1659
2315,1660
2271,1661
2235,1662
2188,1663
2137,1664
2114,1665
2127,1666
2170,1667
2225,1668
2263,1669
2276,1670
2262,1671
2234,1672
2216,1673
2216,1674
2222,1675
2218,1676
2201,1677
2189,1678
2199,1679
2162,1680
2091,1681
2046,1682
2039,1683
2058,1684
2077,1685
2083,1686
2073,1687
2062,1688
2057,1689
2051,1690
2026,1691
1981,1692
1921,1693
1877,1694
1866,1695
1892,1696
1935,1697
1957,1698
1941,1699
1909,1700
1883,1701
1874,1702
1895,1703
1929,1704
1948,1705
1949,1706
1945,1707
1947,1708
1958,1709
1927,1710
1971,1711
1999,1712
2007,1713
2003,1714
1991,1715
1973,1716
1951,1717
1943,1718
1948,1719
1955,1720
1963,1721
1980,1722
2010,1723
2038,1724
2047,1725
2015,1726
1949,1727
1875,1728
1830,1729
1829,1730
1871,1731
1930,1732
1963,1733
1963,1734
1946,1735
1935,1736
1939,1737
1956,1738
1969,1739
1950,1740
1972,1741
1971,1742
1958,1743
1946,1744
1948,1745
1961,1746
1977,1747
1979,1748
1959,1749
1933,1750
1926,1751
1939,1752
1964,1753
1989,1754
2004,1755
2007,1756
2002,1757
1997,1758
2003,1759
2035,1760
2071,1761
2083,1762
2075,1763
2055,1764
2061,1765
2093,1766
2117,1767
2097,1768
2012,1769
1937,1770
1957,1771
1962,1772
1971,1773
1994,1774
2019,1775
2026,1776
2013,1777
1993,1778
1986,1779
2008,1780
2055,1781
2107,1782
2142,1783
2147,1784
2118,1785
2074,1786
2047,1787
2041,1788
2039,1789
2021,1790
1986,1791
1955,1792
1957,1793
1991,1794
2045,1795
2093,1796
2108,1797
2089,1798
2056,1799
1942,1800
1970,1801
2010,1802
2051,1803
2076,1804
2062,1805
2021,1806
1981,1807
1961,1808
1964,1809
1987,1810
2011,1811
2023,1812
2026,1813
2027,1814
2029,1815
2043,1816
2065,1817
2075,1818
2062,1819
2051,1820
2058,1821
2078,1822
2101,1823
2120,1824
2117,1825
2086,1826
2054,1827
2045,1828
2071,1829
2137,1830
2125,1831
2131,1832
2141,1833
2142,1834
2138,1835
2137,1836
2148,1837
2161,1838
2170,1839
2156,1840
2125,1841
2087,1842
2062,1843
2067,1844
2095,1845
2118,1846
2110,1847
2070,1848
2023,1849
1991,1850
1976,1851
1982,1852
1991,1853
1990,1854
1986,1855
1982,1856
1987,1857
1998,1858
2002,1859
1998,1860
2003,1861
1976,1862
1950,1863
1944,1864
1967,1865
2009,1866
2058,1867
2083,1868
2068,1869
2031,1870
1990,1871
1958,1872
1942,1873
1939,1874
1945,1875
1966,1876
2020,1877
2126,1878
2289,1879
2500,1880
2715,1881
2879,1882
2974,1883
2964,1884
2847,1885
2690,1886
2511,1887
2307,1888
2078,1889
1205,1890
1255,1891
1316,1892
1383,1893
1463,1894
1543,1895
1593,1896
1620,1897
1652,1898
1697,1899
1755,1900
1823,1901
1891,1902
1950,1903
2003,1904
2043,1905
2077,1906
2102,1907
2125,1908
2139,1909
2138,1910
2124,1911
2114,1912
2118,1913
2124,1914
2129,1915
2122,1916
2091,1917
2047,1918
2021,1919
2095,1920
2093,1921
2109,1922
2139,1923
2169,1924
2183,1925
2179,1926
2169,1927
2166,1928
2167,1929
2161,1930
2129,1931
2073,1932
2028,1933
2014,1934
2038,1935
2090,1936
2143,1937
2173,1938
2177,1939
2165,1940
2165,1941
2193,1942
2234,1943
2262,1944
2254,1945
2219,1946
2181,1947
2167,1948
2185,1949
2239,1950
2268,1951
2301,1952
2317,1953
2313,1954
2301,1955
2302,1956
2310,1957
2314,1958
2307,1959
2276,1960
2238,1961
2213,1962
2213,1963
2238,1964
2274,1965
2296,1966
2299,1967
2291,1968
2285,1969
2292,1970
2314,1971
2339,1972
2339,1973
2300,1974
2243,1975
2209,1976
2217,1977
2251,1978
2279,1979
2166,1980
2164,1981
2147,1982
2121,1983
2098,1984
2098,1985
2117,1986
2142,1987
2158,1988
2156,1989
2128,1990
2077,1991
2028,1992
2003,1993
1994,1994
1983,1995
1965,1996
1949,1997
1953,1998
1987,1999
2035,2000
2063,2001
2053,2002
2003,2003
1945,2004
1914,2005
1913,2006
1926,2007
1926,2008
1909,2009
1980,2010
1933,2011
1877,2012
1846,2013
1860,2014
1910,2015
1955,2016
1966,2017
1951,2018
1933,2019
1940,2020
1977,2021
2019,2022
2038,2023
2015,2024
1976,2025
1941,2026
1932,2027
1933,2028
1931,2029
1917,2030
1897,2031
1876,2032
1876,2033
1899,2034
1934,2035
1961,2036
1971,2037
1971,2038
1966,2039
1967,2040
1958,2041
1966,2042
1987,2043
2007,2044
2010,2045
1995,2046
1973,2047
1969,2048
1982,2049
2009,2050
2031,2051
2033,2052
2015,2053
1998,2054
1994,2055
2006,2056
2025,2057
2031,2058
2030,2059
2044,2060
2083,2061
2131,2062
2157,2063
2141,2064
2067,2065
1971,2066
1899,2067
1879,2068
1909,2069
1912,2070
1884,2071
1881,2072
1879,2073
1869,2074
1868,2075
1879,2076
1903,2077
1934,2078
1942,2079
1924,2080
1898,2081
1885,2082
1895,2083
1927,2084
1967,2085
2001,2086
2012,2087
2012,2088
2009,2089
2014,2090
2032,2091
2055,2092
2062,2093
2045,2094
2024,2095
2015,2096
2032,2097
2067,2098
2099,2099
2110,2100
2151,2101
2166,2102
2146,2103
2097,2104
2036,2105
1991,2106
1978,2107
1980,2108
1989,2109
1999,2110
2023,2111
2062,2112
2103,2113
2131,2114
2133,2115
2113,2116
2087,2117
2079,2118
2098,2119
2131,2120
2155,2121
2157,2122
2147,2123
2136,2124
2130,2125
2131,2126
2133,2127
2122,2128
2101,2129
2098,2130
2075,2131
2054,2132
2045,2133
2054,2134
2069,2135
2069,2136
2029,2137
1974,2138
1921,2139
1895,2140
1912,2141
1953,2142
1987,2143
1997,2144
1989,2145
1978,2146
1979,2147
1999,2148
2023,2149
2033,2150
2040,2151
2057,2152
2081,2153
2111,2154
2135,2155
2127,2156
2084,2157
2025,2158
1979,2159
1999,2160
2002,2161
2017,2162
2038,2163
2047,2164
2035,2165
2015,2166
2017,2167
2065,2168
2166,2169
2323,2170
2499,2171
2637,2172
2735,2173
2787,2174
2742,2175
2607,2176
2444,2177
2255,2178
2051,2179
1844,2180
1641,2181
1441,2182
1291,2183
1223,2184
1215,2185
1249,2186
1310,2187
1383,2188
1463,2189
1678,2190
1767,2191
1861,2192
1929,2193
1960,2194
1956,2195
1939,2196
1941,2197
1967,2198
2001,2199
2013,2200
2010,2201
2004,2202
2012,2203
2036,2204
2075,2205
2107,2206
2122,2207
2113,2208
2093,2209
2093,2210
2116,2211
2151,2212
2180,2213
2185,2214
2167,2215
2146,2216
2139,2217
2153,2218
2169,2219
2198,2220
2219,2221
2215,2222
2195,2223
2170,2224
2159,2225
2165,2226
2173,2227
2181,2228
2179,2229
2166,2230
2154,2231
2151,2232
2157,2233
2168,2234
2168,2235
2156,2236
2148,2237
2162,2238
2191,2239
2225,2240
2243,2241
2228,2242
2196,2243
2163,2244
2149,2245
2171,2246
2211,2247
2239,2248
2253,2249
2253,2250
2233,2251
2216,2252
2215,2253
2235,2254
2270,2255
2307,2256
2318,2257
2313,2258
2299,2259
2289,2260
2277,2261
2271,2262
2260,2263
2235,2264
2207,2265
2189,2266
2186,2267
2188,2268
2195,2269
2192,2270
2181,2271
2178,2272
2191,2273
2217,2274
2235,2275
2230,2276
2193,2277
2141,2278
2096,2279
2033,2280
2026,2281
2044,2282
2078,2283
2100,2284
2090,2285
2047,2286
1989,2287
1941,2288
1926,2289
1946,2290
1973,2291
1979,2292
1963,2293
1942,2294
1933,2295
1931,2296
1935,2297
1928,2298
1909,2299
1892,2300
1885,2301
1901,2302
1934,2303
1959,2304
1959,2305
1938,2306
1905,2307
1890,2308
1913,2309
1957,2310
1979,2311
2003,2312
2005,2313
1989,2314
1969,2315
1969,2316
1998,2317
2039,2318
2071,2319
2061,2320
2017,2321
1971,2322
1947,2323
1946,2324
1967,2325
1989,2326
1985,2327
1963,2328
1950,2329
1958,2330
1986,2331
2013,2332
2015,2333
1995,2334
1961,2335
1931,2336
1922,2337
1933,2338
1954,2339
2014,2340
2041,2341
2045,2342
2037,2343
2022,2344
2019,2345
2027,2346
2042,2347
2034,2348
2004,2349
1965,2350
1941,2351
1945,2352
1971,2353
2001,2354
2008,2355
1987,2356
1955,2357
1934,2358
1941,2359
1967,2360
1993,2361
2004,2362
2009,2363
2009,2364
2013,2365
2025,2366
2039,2367
2039,2368
2019,2369
2030,2370
2029,2371
2023,2372
2026,2373
2045,2374
2075,2375
2088,2376
2067,2377
2015,2378
1963,2379
1943,2380
1963,2381
2006,2382
2037,2383
2034,2384
2006,2385
1980,2386
1978,2387
1991,2388
2003,2389
2006,2390
1999,2391
1990,2392
1993,2393
2019,2394
2061,2395
2090,2396
2091,2397
2066,2398
2029,2399
2028,2400
2034,2401
2055,2402
2081,2403
2107,2404
2107,2405
2081,2406
2042,2407
2019,2408
2025,2409
2047,2410
2071,2411
2084,2412
2091,2413
2093,2414
2100,2415
2107,2416
2109,2417
2097,2418
2065,2419
2031,2420
2015,2421
2033,2422
2077,2423
2121,2424
2145,2425
2136,2426
2110,2427
2094,2428
2100,2429
2077,2430
2103,2431
2135,2432
2149,2433
2125,2434
2078,2435
2037,2436
2025,2437
2030,2438
2030,2439
2009,2440
1970,2441
1933,2442
1919,2443
1937,2444
1971,2445
2001,2446
2006,2447
1991,2448
1975,2449
1981,2450
2006,2451
2053,2452
2087,2453
2090,2454
2068,2455
2045,2456
2026,2457
2017,2458
2010,2459
2043,2460
2056,2461
2023,2462
1970,2463
1933,2464
1934,2465
1975,2466
2044,2467
2118,2468
2201,2469
2308,2470
2453,2471
2619,2472
2785,2473
2909,2474
2900,2475
2741,2476
2513,2477
2293,2478
2105,2479
1938,2480
1756,2481
1538,2482
1333,2483
1208,2484
1185,2485
1231,2486
1321,2487
1418,2488
1487,2489
1765,2490
1815,2491
1880,2492
1967,2493
2061,2494
2134,2495
2165,2496
2149,2497
2106,2498
2066,2499
2054,2500
2067,2501
2093,2502
2113,2503
2113,2504
2098,2505
2083,2506
2088,2507
2107,2508
2124,2509
2119,2510
2085,2511
2044,2512
2026,2513
2039,2514
2077,2515
2113,2516
2126,2517
2118,2518
2111,2519
2137,2520
2096,2521
2078,2522
2087,2523
2103,2524
2102,2525
2089,2526
2081,2527
2089,2528
2124,2529
2187,2530
2252,2531
2285,2532
2281,2533
2246,2534
2195,2535
2151,2536
2140,2537
2145,2538
2145,2539
2133,2540
2121,2541
2123,2542
2145,2543
2185,2544
2211,2545
2217,2546
2215,2547
2222,2548
2235,2549
2253,2550
2263,2551
2278,2552
2281,2553
2267,2554
2247,2555
2235,2556
2236,2557
2248,2558
2267,2559
2279,2560
2275,2561
2269,2562
2260,2563
2239,2564
2213,2565
2185,2566
2154,2567
2133,2568
2129,2569
2143,2570
2170,2571
2199,2572
2209,2573
2190,2574
2155,2575
2131,2576
2131,2577
2142,2578
2155,2579
2078,2580
2085,2581
2065,2582
2031,2583
2003,2584
1986,2585
1987,2586
2007,2587
2021,2588
2013,2589
1999,2590
1993,2591
2001,2592
2025,2593
2039,2594
2031,2595
1999,2596
1964,2597
1947,2598
1953,2599
1976,2600
1997,2601
1997,2602
1977,2603
1960,2604
1969,2605
1997,2606
2036,2607
2069,2608
2075,2609
1931,2610
1903,2611
1887,2612
1897,2613
1918,2614
1941,2615
1956,2616
1947,2617
1922,2618
1902,2619
1907,2620
1932,2621
1965,2622
1983,2623
1977,2624
1961,2625
1950,2626
1961,2627
1994,2628
2029,2629
2039,2630
2013,2631
1977,2632
1954,2633
1955,2634
1972,2635
1990,2636
1986,2637
1971,2638
1964,2639
1994,2640
1928,2641
1899,2642
1909,2643
1945,2644
1968,2645
1962,2646
1941,2647
1930,2648
1937,2649
1965,2650
1989,2651
1986,2652
1969,2653
1948,2654
1943,2655
1963,2656
1994,2657
2007,2658
1992,2659
1967,2660
1958,2661
1973,2662
2009,2663
2038,2664
2031,2665
2003,2666
1971,2667
1956,2668
1966,2669
2026,2670
2039,2671
2057,2672
2051,2673
2025,2674
1994,2675
1983,2676
2010,2677
2047,2678
2070,2679
2051,2680
2004,2681
1953,2682
1922,2683
1929,2684
1969,2685
2007,2686
2022,2687
2023,2688
2029,2689
2052,2690
2074,2691
2087,2692
2075,2693
2037,2694
1995,2695
1968,2696
1975,2697
2021,2698
2076,2699
2002,2700
2014,2701
2024,2702
2023,2703
2018,2704
2020,2705
2026,2706
2035,2707
2037,2708
2029,2709
2021,2710
2027,2711
2059,2712
2087,2713
2098,2714
2078,2715
2039,2716
2002,2717
1991,2718
2009,2719
2044,2720
2074,2721
2083,2722
2077,2723
2068,2724
2067,2725
2082,2726
2103,2727
2107,2728
2094,2729
2073,2730
2070,2731
2057,2732
2044,2733
2053,2734
2079,2735
2103,2736
2105,2737
2092,2738
2075,2739
2070,2740
2081,2741
2103,2742
2117,2743
2109,2744
2103,2745
2107,2746
2121,2747
2125,2748
2110,2749
2079,2750
2047,2751
2027,2752
2028,2753
2046,2754
2068,2755
2067,2756
2037,2757
1992,2758
1955,2759
2073,2760
2013,2761
1956,2762
1924,2763
1923,2764
1931,2765
1935,2766
1942,2767
1958,2768
1990,2769
2044,2770
2098,2771
2119,2772
2103,2773
2055,2774
1989,2775
1939,2776
1924,2777
1940,2778
1995,2779
2111,2780
2295,2781
2540,2782
2792,2783
3004,2784
3095,2785
2993,2786
2741,2787
2458,2788
2204,2789
1163,2790
1212,2791
1327,2792
1438,2793
1506,2794
1525,2795
1517,2796
1517,2797
1553,2798
1618,2799
1687,2800
1738,2801
1791,2802
1869,2803
1962,2804
2047,2805
2090,2806
2086,2807
2058,2808
2030,2809
2025,2810
2043,2811
2081,2812
2114,2813
2129,2814
2123,2815
2122,2816
2131,2817
2147,2818
2161,2819
2123,2820
2168,2821
2182,2822
2166,2823
2137,2824
2123,2825
2143,2826
2189,2827
2229,2828
2237,2829
2220,2830
2199,2831
2182,2832
2169,2833
2161,2834
2145,2835
2111,2836
2073,2837
2057,2838
2070,2839
2095,2840
2113,2841
2111,2842
2102,2843
2097,2844
2106,2845
2131,2846
2172,2847
2218,2848
2255,2849
2206,2850
2163,2851
2131,2852
2141,2853
2190,2854
2261,2855
2320,2856
2338,2857
2318,2858
2284,2859
2266,2860
2278,2861
2307,2862
2325,2863
2301,2864
2251,2865
2199,2866
2175,2867
2189,2868
2221,2869
2238,2870
2230,2871
2209,2872
2198,2873
2212,2874
2237,2875
2251,2876
2236,2877
2203,2878
2171,2879
2182,2880
2168,2881
2179,2882
2207,2883
2243,2884
2261,2885
2261,2886
2243,2887
2214,2888
2181,2889
2142,2890
2091,2891
2022,2892
1959,2893
1915,2894
1905,2895
1930,2896
1971,2897
2001,2898
2003,2899
1985,2900
1956,2901
1935,2902
1933,2903
1941,2904
1948,2905
1957,2906
1980,2907
2014,2908
2046,2909
1798,2910
1813,2911
1869,2912
1932,2913
1979,2914
2006,2915
2013,2916
2019,2917
2023,2918
2014,2919
1991,2920
1961,2921
1933,2922
1923,2923
1933,2924
1954,2925
1971,2926
1967,2927
1945,2928
1923,2929
1917,2930
1938,2931
1973,2932
1997,2933
2002,2934
1994,2935
1979,2936
1981,2937
2005,2938
2028,2939
2066,2940
2056,2941
2011,2942
1943,2943
1885,2944
1867,2945
1890,2946
1931,2947
1966,2948
1981,2949
1967,2950
1939,2951
1909,2952
1885,2953
1873,2954
1869,2955
1867,2956
1868,2957
1881,2958
1916,2959
1971,2960
2011,2961
2017,2962
1995,2963
1965,2964
1947,2965
1954,2966
1986,2967
2017,2968
2022,2969
2078,2970
2056,2971
2015,2972
1980,2973
1969,2974
1979,2975
1997,2976
2012,2977
2018,2978
2019,2979
2027,2980
2039,2981
2043,2982
2030,2983
1991,2984
1949,2985
1919,2986
1917,2987
1941,2988
1982,2989
2010,2990
2017,2991
2003,2992
1974,2993
1954,2994
1951,2995
1962,2996
1970,2997
1970,2998
1967,2999
2028,3000
1997,3001
1982,3002
1986,3003
2005,3004
2025,3005
2036,3006
2043,3007
2056,3008
2067,3009
2072,3010
2064,3011
2046,3012
2031,3013
2021,3014
2019,3015
2031,3016
2055,3017
2071,3018
2070,3019
2051,3020
2031,3021
2028,3022
2042,3023
2073,3024
2099,3025
2103,3026
2090,3027
2081,3028
2089,3029
2072,3030
2101,3031
2140,3032
2163,3033
2151,3034
2100,3035
2041,3036
2007,3037
2003,3038
2013,3039
2023,3040
2029,3041
2034,3042
2042,3043
2053,3044
2066,3045
2077,3046
2078,3047
2066,3048
2044,3049
2036,3050
2045,3051
2071,3052
2085,3053
2072,3054
2053,3055
2034,3056
2024,3057
2034,3058
2057,3059
2073,3060
2103,3061
2106,3062
2083,3063
2043,3064
2012,3065
2004,3066
2007,3067
2001,3068
1981,3069
1966,3070
1972,3071
2000,3072
2037,3073
2067,3074
2069,3075
2057,3076
2041,3077
2034,3078
2045,3079
2062,3080
2071,3081
2062,3082
2039,3083
2018,3084
2009,3085
2021,3086
2046,3087
2071,3088
2083,3089
1973,3090
2022,3091
2097,3092
2196,3093
2329,3094
2502,3095
2682,3096
2823,3097
2901,3098
2875,3099
2737,3100
2559,3101
2371,3102
2174,3103
1963,3104
1735,3105
1487,3106
1275,3107
1158,3108
1133,3109
1172,3110
1240,3111
1317,3112
1412,3113
1525,3114
1628,3115
1694,3116
1722,3117
1715,3118
1695,3119
2044,3120
2057,3121
2075,3122
2100,3123
2127,3124
2133,3125
2121,3126
2106,3127
2106,3128
2133,3129
2179,3130
2212,3131
2218,3132
2203,3133
2184,3134
2170,3135
2171,3136
2182,3137
2185,3138
2173,3139
2157,3140
2147,3141
2151,3142
2173,3143
2206,3144
2219,3145
2206,3146
2186,3147
2174,3148
2178,3149
2129,3150
2106,3151
2107,3152
2113,3153
2113,3154
2110,3155
2113,3156
2132,3157
2166,3158
2199,3159
2207,3160
2186,3161
2151,3162
2134,3163
2146,3164
2183,3165
2220,3166
2231,3167
2218,3168
2197,3169
2191,3170
2204,3171
2231,3172
2248,3173
2243,3174
2223,3175
2205,3176
2207,3177
2236,3178
2277,3179
2235,3180
2228,3181
2219,3182
2210,3183
2210,3184
2230,3185
2263,3186
2299,3187
2318,3188
2302,3189
2260,3190
2218,3191
2191,3192
2190,3193
2209,3194
2221,3195
2219,3196
2201,3197
2178,3198
2173,3199
2183,3200
2195,3201
2187,3202
2145,3203
2097,3204
2071,3205
2088,3206
2125,3207
2149,3208
2138,3209
1977,3210
1961,3211
1934,3212
1916,3213
1914,3214
1931,3215
1949,3216
1951,3217
1934,3218
1915,3219
1915,3220
1937,3221
1973,3222
1999,3223
2002,3224
1981,3225
1962,3226
1954,3227
1957,3228
1970,3229
1973,3230
1961,3231
1951,3232
1955,3233
1971,3234
1988,3235
1997,3236
1993,3237
1982,3238
1979,3239
1975,3240
1911,3241
1877,3242
1887,3243
1921,3244
1948,3245
1961,3246
1964,3247
1963,3248
1978,3249
2005,3250
2023,3251
2006,3252
1962,3253
1909,3254
1873,3255
1867,3256
1891,3257
1927,3258
1951,3259
1953,3260
1943,3261
1941,3262
1955,3263
1973,3264
1974,3265
1961,3266
1947,3267
1953,3268
1979,3269
1930,3270
1945,3271
1981,3272
2013,3273
2013,3274
1989,3275
1962,3276
1956,3277
1971,3278
2002,3279
2025,3280
2027,3281
2025,3282
2031,3283
2050,3284
2070,3285
2085,3286
2079,3287
2051,3288
2020,3289
2009,3290
2020,3291
2041,3292
2050,3293
2035,3294
2009,3295
1989,3296
1983,3297
1995,3298
2017,3299
2001,3300
1990,3301
1964,3302
1935,3303
1913,3304
1917,3305
1951,3306
1990,3307
2005,3308
1993,3309
1971,3310
1959,3311
1973,3312
1996,3313
2021,3314
2026,3315
2001,3316
1964,3317
1942,3318
1947,3319
1979,3320
2021,3321
2044,3322
2046,3323
2043,3324
2051,3325
2071,3326
2105,3327
2125,3328
2115,3329
2015,3330
2023,3331
2044,3332
2083,3333
2125,3334
2154,3335
2145,3336
2093,3337
2030,3338
1989,3339
1989,3340
2023,3341
2073,3342
2109,3343
2120,3344
2115,3345
2109,3346
2115,3347
2127,3348
2137,3349
2125,3350
2090,3351
2060,3352
2055,3353
2084,3354
2129,3355
2163,3356
2162,3357
2133,3358
2095,3359
2085,3360
2061,3361
2059,3362
2079,3363
2111,3364
2132,3365
2126,3366
2105,3367
2089,3368
2081,3369
2079,3370
2079,3371
2057,3372
2021,3373
1987,3374
1971,3375
1981,3376
2005,3377
2017,3378
2011,3379
1998,3380
1982,3381
1979,3382
1996,3383
2023,3384
2045,3385
2047,3386
2036,3387
2033,3388
2035,3389
1997,3390
1991,3391
1997,3392
2005,3393
2009,3394
2014,3395
2027,3396
2051,3397
2070,3398
2063,3399
2030,3400
1979,3401
1949,3402
1966,3403
2035,3404
2157,3405
2303,3406
2462,3407
2616,3408
2749,3409
2867,3410
2925,3411
2855,3412
2681,3413
2453,3414
2196,3415
1949,3416
1735,3417
1542,3418
1371,3419
1377,3420
1462,3421
1533,3422
1572,3423
1587,3424
1606,3425
1637,3426
1681,3427
1724,3428
1767,3429
1807,3430
1855,3431
1916,3432
1978,3433
2033,3434
2069,3435
2071,3436
2060,3437
2054,3438
2068,3439
2093,3440
2113,3441
2108,3442
2074,3443
2035,3444
2026,3445
2053,3446
2102,3447
2147,3448
2161,3449
2187,3450
2167,3451
2119,3452
2072,3453
2059,3454
2077,3455
2108,3456
2123,3457
2114,3458
2094,3459
2089,3460
2111,3461
2153,3462
2185,3463
2185,3464
2158,3465
2127,3466
2119,3467
2139,3468
2175,3469
2207,3470
2223,3471
2225,3472
2215,3473
2207,3474
2209,3475
2219,3476
2220,3477
2209,3478
2199,3479
2338,3480
2268,3481
2204,3482
2172,3483
2174,3484
2189,3485
2203,3486
2227,3487
2270,3488
2337,3489
2399,3490
2417,3491
2377,3492
2300,3493
2219,3494
2170,3495
2166,3496
2197,3497
2233,3498
2249,3499
2245,3500
2236,3501
2237,3502
2252,3503
2267,3504
2265,3505
2232,3506
2198,3507
2187,3508
2198,3509
2031,3510
2057,3511
2104,3512
2143,3513
2164,3514
2172,3515
2167,3516
2154,3517
2126,3518
2084,3519
2019,3520
1946,3521
1894,3522
1884,3523
1921,3524
1988,3525
2055,3526
2083,3527
2059,3528
2017,3529
1989,3530
1979,3531
1971,3532
1946,3533
1893,3534
1839,3535
1825,3536
1860,3537
1927,3538
1991,3539
1851,3540
1881,3541
1925,3542
1972,3543
2021,3544
2069,3545
2095,3546
2082,3547
2026,3548
1942,3549
1867,3550
1833,3551
1842,3552
1893,3553
1974,3554
2055,3555
2114,3556
2139,3557
2123,3558
2061,3559
1987,3560
1934,3561
1897,3562
1871,3563
1866,3564
1878,3565
1897,3566
1927,3567
1950,3568
1954,3569
2067,3570
2073,3571
2047,3572
2009,3573
1971,3574
1942,3575
1919,3576
1908,3577
1915,3578
1946,3579
1983,3580
2012,3581
2017,3582
1985,3583
1919,3584
1854,3585
1823,3586
1839,3587
1887,3588
1953,3589
2005,3590
2023,3591
2011,3592
2002,3593
2017,3594
2063,3595
2108,3596
2113,3597
2065,3598
1982,3599
1981,3600
1962,3601
1948,3602
1945,3603
1949,3604
1945,3605
1921,3606
1899,3607
1897,3608
1928,3609
1980,3610
2035,3611
2068,3612
2062,3613
2031,3614
1995,3615
1964,3616
1955,3617
1969,3618
2001,3619
2046,3620
2098,3621
2130,3622
2134,3623
2097,3624
2026,3625
1953,3626
1908,3627
1906,3628
1942,3629
1988,3630
1993,3631
2011,3632
2025,3633
2021,3634
2009,3635
2004,3636
2014,3637
2037,3638
2058,3639
2054,3640
2026,3641
1991,3642
1972,3643
1980,3644
2011,3645
2057,3646
2091,3647
2111,3648
2123,3649
2134,3650
2140,3651
2139,3652
2111,3653
2047,3654
1971,3655
1916,3656
1913,3657
1963,3658
2044,3659
2094,3660
2061,3661
2014,3662
1977,3663
1959,3664
1966,3665
2012,3666
2090,3667
2169,3668
2215,3669
2221,3670
2193,3671
2150,3672
2122,3673
2107,3674
2098,3675
2085,3676
2083,3677
2115,3678
2179,3679
2250,3680
2299,3681
2294,3682
2247,3683
2177,3684
2103,3685
2045,3686
2021,3687
2022,3688
2033,3689
2002,3690
1971,3691
1939,3692
1937,3693
1969,3694
2004,3695
2023,3696
2010,3697
1972,3698
1930,3699
1909,3700
1922,3701
1953,3702
1979,3703
1986,3704
1981,3705
1986,3706
2017,3707
2063,3708
2104,3709
2109,3710
2069,3711
2007,3712
1954,3713
1934,3714
1943,3715
1953,3716
1935,3717
1911,3718
1919,3719
2843,3720
2919,3721
2937,3722
2857,3723
2707,3724
2517,3725
2308,3726
2098,3727
1897,3728
1704,3729
1533,3730
1413,3731
1343,3732
1319,3733
1323,3734
1360,3735
1427,3736
1514,3737
1590,3738
1645,3739
1686,3740
1720,3741
1754,3742
1793,3743
1849,3744
1915,3745
1977,3746
2023,3747
2062,3748
2103,3749
2085,3750
2093,3751
2121,3752
2147,3753
2153,3754
2137,3755
2117,3756
2109,3757
2122,3758
2145,3759
2155,3760
2139,3761
2105,3762
2073,3763
2062,3764
2075,3765
2106,3766
2135,3767
2153,3768
2159,3769
2158,3770
2161,3771
2168,3772
2178,3773
2170,3774
2153,3775
2134,3776
2126,3777
2107,3778
2068,3779
2088,3780
2124,3781
2158,3782
2155,3783
2104,3784
2047,3785
2021,3786
2073,3787
2159,3788
2215,3789
2232,3790
2219,3791
2195,3792
2170,3793
2154,3794
2142,3795
2135,3796
2147,3797
2182,3798
2229,3799
2281,3800
2301,3801
2258,3802
2182,3803
2109,3804
2071,3805
2075,3806
2111,3807
2163,3808
2197,3809
2188,3810
2166,3811
2149,3812
2148,3813
2166,3814
2200,3815
2230,3816
2234,3817
2206,3818
2169,3819
2147,3820
2154,3821
2181,3822
2205,3823
2211,3824
2202,3825
2191,3826
2191,3827
2216,3828
2263,3829
2299,3830
2297,3831
2257,3832
2187,3833
2111,3834
2044,3835
1997,3836
1965,3837
1950,3838
1957,3839
1919,3840
1863,3841
1839,3842
1854,3843
1895,3844
1926,3845
1925,3846
1911,3847
1909,3848
1926,3849
1958,3850
1999,3851
2025,3852
2026,3853
1999,3854
1970,3855
1951,3856
1944,3857
1945,3858
1943,3859
1947,3860
1962,3861
1987,3862
2014,3863
2024,3864
2009,3865
1973,3866
1939,3867
1927,3868
1942,3869
1929,3870
1930,3871
1950,3872
1975,3873
1993,3874
2002,3875
2009,3876
2018,3877
2033,3878
2050,3879
2045,3880
2018,3881
1981,3882
1954,3883
1955,3884
1979,3885
2011,3886
2029,3887
2029,3888
2019,3889
2019,3890
2029,3891
2040,3892
2027,3893
1987,3894
1945,3895
1932,3896
1964,3897
2023,3898
2086,3899
1899,3900
1897,3901
1906,3902
1915,3903
1929,3904
1965,3905
2018,3906
2071,3907
2094,3908
2084,3909
2047,3910
2020,3911
2026,3912
2053,3913
2084,3914
2095,3915
2089,3916
2077,3917
2071,3918
2084,3919
2110,3920
2137,3921
2139,3922
2107,3923
2066,3924
2046,3925
2057,3926
2098,3927
2147,3928
2175,3929
2028,3930
1976,3931
1950,3932
1951,3933
1967,3934
1993,3935
2020,3936
2034,3937
2027,3938
2014,3939
2007,3940
2015,3941
2034,3942
2042,3943
2034,3944
2022,3945
2025,3946
2054,3947
2095,3948
2131,3949
2137,3950
2107,3951
2052,3952
2000,3953
1977,3954
1990,3955
2021,3956
2065,3957
2105,3958
2125,3959
1929,3960
1922,3961
1929,3962
1951,3963
1985,3964
2013,3965
2028,3966
2038,3967
2054,3968
2069,3969
2081,3970
2081,3971
2063,3972
2038,3973
2023,3974
2023,3975
2042,3976
2070,3977
2082,3978
2073,3979
2051,3980
2029,3981
2026,3982
2041,3983
2072,3984
2098,3985
2103,3986
2092,3987
2074,3988
2069,3989
2073,3990
2061,3991
2065,3992
2072,3993
2069,3994
2055,3995
2033,3996
2022,3997
2025,3998
2033,3999
2030,4000
2019,4001
2006,4002
2009,4003
2031,4004
2060,4005
2075,4006
2059,4007
2013,4008
1951,4009
1894,4010
1867,4011
1877,4012
1911,4013
1941,4014
1944,4015
1933,4016
1917,4017
1910,4018
1917,4019
2015,4020
2023,4021
2001,4022
1956,4023
1907,4024
1877,4025
1884,4026
1933,4027
2013,4028
2099,4029
2187,4030
2297,4031
2451,4032
2631,4033
2806,4034
2941,4035
2975,4036
2862,4037
2660,4038
2451,4039
2251,4040
2065,4041
1869,4042
1647,4043
1422,4044
1272,4045
1228,4046
1271,4047
1351,4048
1412,4049
1615,4050
1659,4051
1689,4052
1729,4053
1798,4054
1892,4055
1993,4056
2063,4057
2099,4058
2111,4059
2118,4060
2122,4061
2127,4062
2132,4063
2122,4064
2106,4065
2093,4066
2095,4067
2116,4068
2156,4069
2195,4070
2217,4071
2220,4072
2209,4073
2192,4074
2175,4075
2149,4076
2102,4077
2054,4078
2021,4079
2078,4080
2038,4081
2026,4082
2043,4083
2078,4084
2107,4085
2108,4086
2092,4087
2083,4088
2100,4089
2138,4090
2167,4091
2171,4092
2157,4093
2142,4094
2145,4095
2167,4096
2205,4097
2232,4098
2228,4099
2205,4100
2186,4101
2193,4102
2222,4103
2263,4104
2287,4105
2276,4106
2238,4107
2203,4108
2194,4109
2253,4110
2299,4111
2355,4112
2387,4113
2379,4114
2329,4115
2254,4116
2186,4117
2139,4118
2127,4119
2134,4120
2145,4121
2149,4122
2154,4123
2170,4124
2198,4125
2226,4126
2235,4127
2225,4128
2205,4129
2190,4130
2193,4131
2210,4132
2221,4133
2213,4134
2188,4135
2164,4136
2161,4137
2178,4138
2200,4139
2108,4140
2141,4141
2148,4142
2119,4143
2070,4144
2025,4145
1995,4146
1980,4147
1975,4148
1971,4149
1964,4150
1958,4151
1965,4152
1972,4153
1966,4154
1945,4155
1910,4156
1878,4157
1860,4158
1871,4159
1902,4160
1935,4161
1956,4162
1972,4163
1989,4164
1999,4165
2004,4166
1996,4167
1960,4168
1904,4169
1889,4170
1905,4171
1909,4172
1914,4173
1935,4174
1966,4175
1997,4176
2009,4177
1996,4178
1974,4179
1960,4180
1965,4181
1987,4182
2001,4183
2002,4184
1988,4185
1967,4186
1965,4187
1979,4188
2005,4189
2025,4190
2028,4191
2019,4192
2017,4193
2051,4194
2091,4195
2117,4196
2103,4197
2043,4198
1962,4199
1995,4200
1959,4201
1926,4202
1918,4203
1935,4204
1958,4205
1974,4206
1973,4207
1964,4208
1962,4209
1969,4210
1977,4211
1972,4212
1958,4213
1953,4214
1962,4215
1983,4216
2003,4217
2002,4218
1977,4219
1942,4220
1915,4221
1923,4222
1959,4223
2010,4224
2045,4225
2046,4226
2020,4227
1986,4228
1963,4229
1972,4230
1981,4231
2005,4232
2029,4233
2047,4234
2060,4235
2056,4236
2047,4237
2044,4238
2038,4239
2006,4240
1961,4241
1927,4242
1919,4243
1932,4244
1967,4245
2015,4246
2047,4247
2045,4248
2015,4249
1979,4250
1962,4251
1971,4252
1992,4253
2003,4254
2001,4255
1993,4256
1991,4257
2001,4258
2017,4259
2090,4260
2106,4261
2101,4262
2077,4263
2047,4264
2038,4265
2051,4266
2077,4267
2102,4268
2102,4269
2086,4270
2083,4271
2103,4272
2141,4273
2179,4274
2189,4275
2167,4276
2135,4277
2117,4278
2123,4279
2139,4280
2146,4281
2123,4282
2077,4283
2034,4284
2025,4285
2053,4286
2097,4287
2139,4288
2156,4289
2125,4290
2110,4291
2092,4292
2077,4293
2078,4294
2097,4295
2125,4296
2122,4297
2092,4298
2042,4299
2003,4300
1995,4301
2011,4302
2033,4303
2039,4304
2025,4305
2008,4306
2020,4307
2054,4308
2103,4309
2134,4310
2124,4311
2072,4312
2005,4313
1958,4314
1938,4315
1947,4316
1957,4317
1953,4318
1933,4319
2026,4320
2006,4321
1989,4322
1975,4323
1979,4324
2003,4325
2038,4326
2104,4327
2207,4328
2357,4329
2537,4330
2714,4331
2849,4332
2911,4333
2863,4334
2739,4335
2591,4336
2413,4337
2206,4338
1971,4339
1716,4340
1463,4341
1273,4342
1189,4343
1210,4344
1288,4345
1375,4346
1451,4347
1522,4348
1591,4349
1795,4350
1841,4351
1886,4352
1925,4353
1965,4354
2004,4355
2039,4356
2075,4357
2114,4358
2155,4359
2178,4360
2167,4361
2141,4362
2111,4363
2091,4364
2089,4365
2103,4366
2115,4367
2117,4368
2119,4369
2127,4370
2146,4371
2170,4372
2186,4373
2173,4374
2141,4375
2115,4376
2117,4377
2147,4378
2194,4379
2139,4380
2193,4381
2225,4382
2217,4383
2175,4384
2119,4385
2077,4386
2067,4387
2077,4388
2087,4389
2091,4390
2087,4391
2103,4392
2145,4393
2193,4394
2226,4395
2230,4396
2212,4397
2193,4398
2193,4399
2216,4400
2253,4401
2271,4402
2259,4403
2227,4404
2199,4405
2196,4406
2214,4407
2238,4408
2258,4409
2357,4410
2303,4411
2249,4412
2219,4413
2227,4414
2261,4415
2300,4416
2310,4417
2285,4418
2253,4419
2239,4420
2251,4421
2273,4422
2289,4423
2284,4424
2266,4425
2247,4426
2239,4427
2245,4428
2257,4429
2261,4430
2250,4431
2228,4432
2217,4433
2222,4434
2236,4435
2244,4436
2225,4437
2181,4438
2130,4439
2065,4440
2040,4441
2037,4442
2053,4443
2075,4444
2083,4445
2063,4446
2023,4447
1975,4448
1945,4449
1932,4450
1933,4451
1931,4452
1915,4453
1895,4454
1884,4455
1893,4456
1915,4457
1933,4458
1931,4459
1919,4460
1908,4461
1915,4462
1940,4463
1962,4464
1954,4465
1923,4466
1892,4467
1875,4468
1885,4469
1935,4470
1941,4471
1957,4472
1966,4473
1955,4474
1940,4475
1938,4476
1955,4477
1987,4478
2023,4479
2042,4480
2035,4481
2011,4482
1994,4483
1988,4484
1989,4485
1990,4486
1975,4487
1941,4488
1907,4489
1897,4490
1924,4491
1967,4492
1994,4493
1990,4494
1960,4495
1923,4496
1903,4497
1914,4498
1941,4499
1963,4500
1986,4501
1992,4502
1979,4503
1958,4504
1951,4505
1963,4506
1986,4507
2003,4508
1993,4509
1965,4510
1938,4511
1927,4512
1937,4513
1961,4514
1975,4515
1973,4516
1959,4517
1939,4518
1922,4519
1909,4520
1903,4521
1898,4522
1883,4523
1873,4524
1881,4525
1908,4526
1947,4527
1978,4528
1993,4529
2042,4530
2031,4531
2011,4532
1995,4533
1993,4534
2009,4535
2029,4536
2031,4537
2017,4538
1994,4539
1989,4540
2010,4541
2051,4542
2087,4543
2097,4544
2086,4545
2055,4546
2030,4547
2031,4548
2051,4549
2062,4550
2059,4551
2047,4552
2043,4553
2053,4554
2075,4555
2105,4556
2127,4557
2129,4558
2119,4559
2068,4560
2035,4561
2026,4562
2031,4563
2046,4564
2059,4565
2056,4566
2042,4567
2025,4568
2015,4569
2018,4570
2027,4571
2025,4572
2009,4573
1994,4574
1993,4575
2009,4576
2038,4577
2054,4578
2037,4579
2001,4580
1972,4581
1963,4582
1973,4583
1998,4584
2017,4585
2025,4586
2030,4587
2037,4588
2051,4589
2001,4590
2007,4591
2015,4592
1999,4593
1945,4594
1870,4595
1821,4596
1828,4597
1893,4598
2006,4599
2139,4600
2278,4601
2427,4602
2584,4603
2728,4604
2834,4605
2849,4606
2717,4607
2507,4608
2290,4609
2102,4610
1959,4611
1842,4612
1680,4613
1473,4614
1294,4615
1185,4616
1170,4617
1238,4618
1347,4619
1733,4620
1783,4621
1815,4622
1828,4623
1849,4624
1893,4625
1965,4626
2039,4627
2095,4628
2114,4629
2109,4630
2097,4631
2089,4632
2101,4633
2133,4634
2162,4635
2166,4636
2148,4637
2125,4638
2109,4639
2109,4640
2126,4641
2140,4642
2139,4643
2125,4644
2118,4645
2125,4646
2147,4647
2174,4648
2189,4649
2160,4650
2161,4651
2164,4652
2173,4653
2195,4654
2223,4655
2239,4656
2219,4657
2171,4658
2131,4659
2109,4660
2111,4661
2129,4662
2141,4663
2135,4664
2117,4665
2105,4666
2117,4667
2149,4668
2183,4669
2199,4670
2193,4671
2174,4672
2165,4673
2175,4674
2201,4675
2233,4676
2247,4677
2241,4678
2225,4679
2271,4680
2249,4681
2244,4682
2255,4683
2274,4684
2275,4685
2247,4686
2214,4687
2197,4688
2216,4689
2254,4690
2286,4691
2285,4692
2246,4693
2202,4694
2170,4695
2165,4696
2186,4697
2205,4698
2200,4699
2167,4700
2127,4701
2113,4702
2124,4703
2153,4704
2173,4705
2171,4706
2152,4707
2133,4708
2122,4709
2101,4710
2079,4711
2043,4712
2008,4713
1973,4714
1940,4715
1925,4716
1928,4717
1946,4718
1967,4719
1978,4720
1969,4721
1943,4722
1922,4723
1919,4724
1935,4725
1955,4726
1958,4727
1935,4728
1911,4729
1905,4730
1925,4731
1970,4732
2021,4733
2038,4734
2018,4735
1977,4736
1939,4737
1915,4738
1928,4739
1975,4740
1995,4741
2001,4742
1995,4743
1986,4744
1989,4745
2009,4746
2043,4747
2068,4748
2047,4749
1989,4750
1925,4751
1885,4752
1880,4753
1903,4754
1923,4755
1923,4756
1918,4757
1929,4758
1958,4759
1999,4760
2031,4761
2033,4762
1995,4763
1945,4764
1919,4765
1937,4766
1978,4767
2018,4768
2023,4769
2038,4770
2046,4771
2033,4772
2012,4773
2003,4774
2009,4775
2019,4776
2019,4777
1999,4778
1969,4779
1946,4780
1945,4781
1964,4782
1991,4783
2008,4784
2019,4785
2010,4786
1995,4787
1991,4788
1994,4789
1983,4790
1961,4791
1939,4792
1933,4793
1951,4794
1993,4795
2038,4796
2065,4797
2062,4798
2043,4799
2050,4800
2011,4801
1997,4802
2011,4803
2043,4804
2068,4805
2065,4806
2038,4807
2006,4808
1994,4809
2008,4810
2039,4811
2057,4812
2046,4813
2019,4814
1993,4815
1986,4816
2001,4817
2010,4818
1994,4819
1975,4820
1963,4821
1971,4822
1999,4823
2039,4824
2070,4825
2076,4826
2063,4827
2052,4828
2054,4829
2127,4830
2145,4831
2161,4832
2170,4833
2162,4834
2137,4835
2108,4836
2093,4837
2095,4838
2107,4839
2116,4840
2109,4841
2079,4842
2040,4843
2020,4844
2021,4845
2030,4846
2024,4847
2007,4848
1989,4849
1982,4850
1997,4851
2025,4852
2043,4853
2043,4854
2025,4855
1997,4856
1977,4857
1975,4858
1990,4859
2038,4860
2057,4861
2061,4862
2044,4863
2013,4864
1982,4865
1971,4866
1960,4867
1942,4868
1911,4869
1877,4870
1869,4871
1905,4872
1991,4873
2122,4874
2270,4875
2429,4876
2583,4877
2703,4878
2803,4879
2859,4880
2809,4881
2651,4882
2441,4883
2217,4884
2006,4885
1818,4886
1635,4887
1458,4888
1318,4889
1457,4890
1482,4891
1501,4892
1529,4893
1583,4894
1660,4895
1750,4896
1836,4897
1915,4898
1996,4899
2069,4900
2126,4901
2163,4902
2179,4903
2166,4904
2129,4905
2096,4906
2083,4907
2086,4908
2100,4909
2108,4910
2095,4911
2070,4912
2062,4913
2083,4914
2127,4915
2173,4916
2194,4917
2180,4918
2157,4919
2136,4920
2110,4921
2109,4922
2135,4923
2167,4924
2179,4925
2161,4926
2134,4927
2119,4928
2127,4929
2155,4930
2189,4931
2197,4932
2174,4933
2146,4934
2134,4935
2145,4936
2169,4937
2194,4938
2196,4939
2179,4940
2157,4941
2146,4942
2157,4943
2186,4944
2207,4945
2205,4946
2189,4947
2173,4948
2167,4949
2203,4950
2206,4951
2230,4952
2257,4953
2260,4954
2236,4955
2206,4956
2190,4957
2199,4958
2229,4959
2255,4960
2263,4961
2251,4962
2239,4963
2244,4964
2261,4965
2287,4966
2299,4967
2284,4968
2251,4969
2220,4970
2213,4971
2233,4972
2255,4973
2255,4974
2225,4975
2172,4976
2131,4977
2117,4978
2129,4979
2225,4980
2194,4981
2132,4982
2053,4983
1981,4984
1946,4985
1948,4986
1978,4987
2017,4988
2034,4989
2020,4990
1995,4991
1979,4992
1979,4993
1982,4994
1966,4995
1934,4996
1896,4997
1873,4998
1878,4999
1909,5000
1947,5001
1970,5002
1971,5003
1964,5004
1965,5005
1990,5006
2023,5007
2043,5008
2035,5009
1975,5010
1959,5011
1941,5012
1933,5013
1947,5014
1975,5015
1993,5016
1986,5017
1956,5018
1919,5019
1901,5020
1915,5021
1955,5022
1998,5023
2015,5024
2001,5025
1973,5026
1950,5027
1948,5028
1967,5029
1985,5030
1986,5031
1973,5032
1958,5033
1961,5034
1980,5035
2008,5036
2021,5037
2015,5038
2002,5039
2036,5040
2010,5041
1987,5042
1973,5043
1969,5044
1969,5045
1962,5046
1950,5047
1943,5048
1957,5049
1986,5050
2011,5051
2013,5052
1988,5053
1957,5054
1940,5055
1947,5056
1974,5057
2001,5058
2006,5059
1983,5060
1945,5061
1923,5062
1931,5063
1960,5064
1991,5065
1996,5066
1979,5067
1959,5068
1959,5069
2011,5070
2003,5071
2002,5072
2001,5073
1986,5074
1972,5075
1970,5076
1991,5077
2029,5078
2066,5079
2075,5080
2055,5081
2019,5082
1992,5083
1988,5084
2009,5085
2037,5086
2047,5087
2039,5088
2028,5089
2029,5090
2047,5091
2083,5092
2116,5093
2116,5094
2085,5095
2047,5096
2028,5097
2028,5098
2043,5099
1993,5100
2038,5101
2067,5102
2063,5103
2040,5104
2030,5105
2047,5106
2082,5107
2115,5108
2122,5109
2097,5110
2063,5111
2052,5112
2074,5113
2105,5114
2122,5115
2111,5116
2085,5117
2057,5118
2043,5119
2053,5120
2081,5121
2097,5122
2086,5123
2057,5124
2033,5125
2027,5126
2042,5127
2063,5128
2065,5129
2069,5130
2091,5131
2095,5132
2085,5133
2075,5134
2071,5135
2070,5136
2053,5137
2019,5138
1977,5139
1949,5140
1947,5141
1965,5142
1981,5143
1975,5144
1946,5145
1914,5146
1899,5147
1901,5148
1912,5149
1911,5150
1894,5151
1890,5152
1933,5153
2038,5154
2198,5155
2390,5156
2589,5157
2749,5158
2866,5159
2167,5160
1932,5161
1715,5162
1507,5163
1358,5164
1283,5165
1259,5166
1263,5167
1294,5168
1361,5169
1451,5170
1533,5171
1578,5172
1591,5173
1593,5174
1609,5175
1655,5176
1729,5177
1812,5178
1887,5179
1950,5180
1991,5181
2025,5182
2060,5183
2091,5184
2109,5185
2102,5186
2079,5187
2058,5188
2055,5189
2101,5190
2118,5191
2149,5192
2169,5193
2162,5194
2134,5195
2105,5196
2098,5197
2115,5198
2149,5199
2179,5200
2182,5201
2167,5202
2152,5203
2148,5204
2159,5205
2177,5206
2178,5207
2149,5208
2105,5209
2076,5210
2082,5211
2114,5212
2149,5213
2162,5214
2159,5215
2151,5216
2151,5217
2167,5218
2195,5219
2174,5220
2197,5221
2204,5222
2189,5223
2159,5224
2141,5225
2150,5226
2185,5227
2223,5228
2251,5229
2259,5230
2254,5231
2250,5232
2253,5233
2263,5234
2266,5235
2250,5236
2227,5237
2209,5238
2207,5239
2219,5240
2234,5241
2237,5242
2229,5243
2223,5244
2225,5245
2238,5246
2254,5247
2259,5248
2244,5249
2268,5250
2241,5251
2185,5252
2126,5253
2093,5254
2087,5255
2102,5256
2117,5257
2111,5258
2093,5259
2078,5260
2082,5261
2107,5262
2129,5263
2129,5264
2103,5265
2066,5266
2041,5267
2038,5268
2045,5269
2046,5270
2033,5271
2007,5272
1983,5273
1975,5274
1987,5275
2007,5276
2013,5277
1995,5278
1965,5279
1993,5280
1977,5281
1967,5282
1966,5283
1973,5284
1981,5285
1980,5286
1973,5287
1967,5288
1973,5289
1989,5290
2015,5291
2030,5292
2025,5293
1999,5294
1963,5295
1937,5296
1929,5297
1935,5298
1939,5299
1936,5300
1932,5301
1943,5302
1974,5303
2013,5304
2037,5305
2027,5306
1993,5307
1963,5308
1953,5309
1909,5310
1918,5311
1949,5312
1983,5313
1997,5314
1986,5315
1966,5316
1958,5317
1966,5318
1993,5319
2009,5320
1999,5321
1967,5322
1926,5323
1901,5324
1908,5325
1949,5326
1991,5327
2009,5328
1998,5329
1967,5330
1938,5331
1932,5332
1947,5333
1964,5334
1969,5335
1964,5336
1968,5337
1991,5338
2017,5339
1965,5340
1983,5341
1990,5342
1977,5343
1962,5344
1963,5345
1990,5346
2035,5347
2089,5348
2115,5349
2099,5350
2056,5351
2025,5352
2020,5353
2035,5354
2050,5355
2035,5356
1989,5357
1943,5358
1926,5359
1939,5360
1967,5361
1986,5362
1983,5363
1971,5364
1965,5365
1973,5366
1995,5367
2017,5368
2020,5369
1997,5370
2003,5371
2003,5372
2005,5373
2018,5374
2042,5375
2067,5376
2067,5377
2037,5378
1999,5379
1971,5380
1969,5381
1995,5382
2036,5383
2062,5384
2062,5385
2043,5386
2035,5387
2041,5388
2065,5389
2077,5390
2062,5391
2035,5392
2017,5393
2023,5394
2054,5395
2090,5396
2104,5397
2097,5398
2083,5399
2127,5400
2103,5401
2095,5402
2103,5403
2121,5404
2131,5405
2125,5406
2108,5407
2094,5408
2092,5409
2089,5410
2083,5411
2053,5412
2002,5413
1956,5414
1933,5415
1937,5416
1965,5417
2001,5418
2018,5419
2014,5420
2008,5421
2011,5422
2031,5423
2065,5424
2079,5425
2067,5426
2035,5427
2006,5428
1991,5429
1943,5430
1953,5431
1983,5432
2015,5433
2017,5434
1989,5435
1953,5436
1936,5437
1958,5438
2025,5439
2122,5440
2238,5441
2386,5442
2558,5443
2724,5444
2869,5445
2949,5446
2885,5447
2707,5448
2487,5449
2274,5450
2087,5451
1909,5452
1712,5453
1481,5454
1277,5455
1157,5456
1137,5457
1199,5458
1311,5459
1638,5460
1702,5461
1765,5462
1811,5463
1855,5464
1919,5465
2011,5466
2103,5467
2159,5468
2168,5469
2145,5470
2109,5471
2079,5472
2074,5473
2087,5474
2101,5475
2105,5476
2099,5477
2095,5478
2110,5479
2141,5480
2169,5481
2173,5482
2153,5483
2121,5484
2103,5485
2109,5486
2137,5487
2168,5488
2179,5489
2164,5490
2163,5491
2137,5492
2116,5493
2119,5494
2143,5495
2183,5496
2204,5497
2203,5498
2185,5499
2166,5500
2165,5501
2181,5502
2190,5503
2175,5504
2146,5505
2118,5506
2114,5507
2136,5508
2174,5509
2203,5510
2214,5511
2209,5512
2199,5513
2204,5514
2221,5515
2242,5516
2246,5517
2235,5518
2219,5519
2254,5520
2227,5521
2213,5522
2221,5523
2243,5524
2261,5525
2261,5526
2249,5527
2242,5528
2247,5529
2266,5530
2283,5531
2279,5532
2262,5533
2241,5534
2229,5535
2233,5536
2246,5537
2248,5538
2223,5539
2189,5540
2161,5541
2161,5542
2188,5543
2225,5544
2242,5545
2228,5546
2197,5547
2167,5548
2159,5549
2086,5550
2069,5551
2073,5552
2081,5553
2072,5554
2045,5555
2015,5556
1997,5557
1996,5558
2010,5559
2017,5560
2008,5561
1994,5562
1987,5563
1996,5564
2015,5565
2033,5566
2026,5567
1994,5568
1963,5569
1953,5570
1968,5571
1990,5572
1997,5573
1972,5574
1937,5575
1911,5576
1905,5577
1917,5578
1943,5579
1963,5580
1981,5581
1983,5582
1966,5583
1939,5584
1923,5585
1929,5586
1951,5587
1978,5588
1985,5589
1971,5590
1951,5591
1947,5592
1957,5593
1979,5594
1993,5595
1986,5596
1964,5597
1948,5598
1951,5599
1971,5600
1995,5601
2004,5602
1995,5603
1975,5604
1955,5605
1953,5606
1969,5607
1991,5608
1995,5609
2031,5610
2018,5611
1986,5612
1962,5613
1972,5614
2022,5615
2090,5616
2129,5617
2113,5618
2054,5619
1987,5620
1934,5621
1912,5622
1917,5623
1925,5624
1925,5625
1915,5626
1918,5627
1946,5628
1991,5629
2029,5630
2040,5631
2025,5632
2006,5633
2011,5634
2035,5635
2053,5636
2041,5637
2009,5638
1971,5639
2018,5640
1994,5641
1982,5642
1992,5643
2013,5644
2025,5645
2007,5646
1977,5647
1953,5648
1949,5649
1972,5650
2007,5651
2027,5652
2029,5653
2019,5654
2014,5655
2023,5656
2041,5657
2052,5658
2033,5659
1995,5660
1959,5661
1955,5662
1981,5663
2029,5664
2072,5665
2094,5666
2107,5667
2116,5668
2123,5669
2019,5670
2022,5671
2038,5672
2053,5673
2056,5674
2053,5675
2051,5676
2061,5677
2086,5678
2111,5679
2118,5680
2107,5681
2093,5682
2085,5683
2100,5684
2131,5685
2163,5686
2169,5687
2145,5688
2116,5689
2101,5690
2106,5691
2120,5692
2123,5693
2103,5694
2063,5695
2022,5696
1997,5697
1989,5698
1990,5699
2029,5700
2057,5701
2055,5702
2026,5703
1987,5704
1960,5705
1963,5706
1989,5707
2024,5708
2036,5709
2026,5710
2013,5711
2010,5712
2018,5713
2037,5714
2046,5715
2031,5716
2006,5717
1986,5718
1990,5719
2006,5720
2021,5721
2010,5722
1979,5723
1962,5724
1989,5725
2074,5726
2207,5727
2366,5728
2527,5729
2547,5730
2355,5731
2137,5732
1923,5733
1714,5734
1503,5735
1328,5736
1221,5737
1186,5738
1210,5739
1277,5740
1362,5741
1447,5742
1522,5743
1563,5744
1575,5745
1585,5746
1617,5747
1675,5748
1754,5749
1841,5750
1915,5751
1973,5752
2027,5753
2076,5754
2119,5755
2156,5756
2163,5757
2135,5758
2095,5759
2087,5760
2075,5761
2069,5762
2082,5763
2114,5764
2145,5765
2159,5766
2147,5767
2129,5768
2128,5769
2149,5770
2187,5771
2214,5772
2207,5773
2171,5774
2133,5775
2111,5776
2119,5777
2143,5778
2162,5779
2162,5780
2143,5781
2125,5782
2123,5783
2139,5784
2147,5785
2130,5786
2101,5787
2078,5788
2085,5789
2166,5790
2177,5791
2201,5792
2222,5793
2223,5794
2209,5795
2197,5796
2194,5797
2199,5798
2205,5799
2200,5800
2187,5801
2173,5802
2165,5803
2169,5804
2179,5805
2197,5806
2212,5807
2206,5808
2183,5809
2163,5810
2157,5811
2166,5812
2191,5813
2213,5814
2218,5815
2218,5816
2229,5817
2255,5818
2283,5819
2226,5820
2251,5821
2259,5822
2246,5823
2227,5824
2215,5825
2222,5826
2243,5827
2259,5828
2251,5829
2219,5830
2182,5831
2159,5832
2159,5833
2175,5834
2183,5835
2169,5836
2146,5837
2130,5838
2131,5839
2149,5840
2166,5841
2158,5842
2116,5843
2055,5844
2003,5845
1971,5846
1954,5847
1939,5848
1914,5849
1973,5850
1969,5851
1942,5852
1907,5853
1895,5854
1912,5855
1948,5856
1978,5857
1979,5858
1953,5859
1918,5860
1897,5861
1891,5862
1898,5863
1909,5864
1919,5865
1941,5866
1990,5867
2047,5868
2099,5869
2124,5870
2109,5871
2070,5872
2037,5873
2018,5874
2018,5875
2020,5876
1999,5877
1954,5878
1910,5879
2071,5880
2029,5881
1979,5882
1942,5883
1927,5884
1929,5885
1931,5886
1937,5887
1950,5888
1976,5889
2009,5890
2041,5891
2050,5892
2025,5893
1990,5894
1966,5895
1957,5896
1973,5897
1989,5898
1990,5899
1979,5900
1971,5901
1975,5902
1991,5903
2017,5904
2034,5905
2033,5906
2013,5907
1982,5908
1955,5909
1897,5910
1930,5911
1980,5912
2024,5913
2035,5914
2015,5915
1982,5916
1959,5917
1953,5918
1965,5919
1981,5920
1983,5921
1973,5922
1969,5923
1993,5924
2035,5925
2072,5926
2078,5927
2046,5928
1987,5929
1932,5930
1905,5931
1910,5932
1939,5933
1965,5934
1983,5935
2002,5936
2026,5937
2061,5938
2093,5939
2043,5940
2062,5941
2073,5942
2071,5943
2067,5944
2085,5945
2137,5946
2210,5947
2262,5948
2268,5949
2223,5950
2156,5951
2107,5952
2090,5953
2093,5954
2093,5955
2075,5956
2053,5957
2037,5958
2044,5959
2072,5960
2103,5961
2116,5962
2106,5963
2091,5964
2089,5965
2108,5966
2148,5967
2187,5968
2199,5969
2074,5970
2065,5971
2042,5972
2027,5973
2033,5974
2054,5975
2077,5976
2075,5977
2052,5978
2035,5979
2037,5980
2060,5981
2087,5982
2091,5983
2051,5984
1983,5985
1913,5986
1873,5987
1868,5988
1886,5989
1907,5990
1918,5991
1926,5992
1938,5993
1963,5994
1996,5995
2023,5996
2020,5997
1990,5998
1950,5999
1985,6000
1975,6001
1977,6002
1991,6003
2007,6004
2017,6005
2001,6006
1971,6007
1946,6008
1941,6009
1939,6010
1923,6011
1892,6012
1867,6013
1875,6014
1935,6015
2061,6016
2234,6017
2431,6018
2615,6019
2745,6020
2842,6021
2895,6022
2851,6023
2711,6024
2518,6025
2302,6026
2086,6027
1881,6028
1681,6029
1253,6030
1345,6031
1454,6032
1546,6033
1606,6034
1652,6035
1692,6036
1743,6037
1815,6038
1899,6039
1980,6040
2033,6041
2045,6042
2039,6043
2038,6044
2045,6045
2058,6046
2069,6047
2077,6048
2083,6049
2100,6050
2126,6051
2157,6052
2181,6053
2190,6054
2187,6055
2169,6056
2153,6057
2135,6058
2131,6059
2158,6060
2165,6061
2158,6062
2139,6063
2124,6064
2131,6065
2164,6066
2207,6067
2244,6068
2239,6069
2198,6070
2142,6071
2097,6072
2075,6073
2084,6074
2103,6075
2115,6076
2106,6077
2094,6078
2106,6079
2147,6080
2197,6081
2222,6082
2207,6083
2172,6084
2143,6085
2137,6086
2148,6087
2162,6088
2163,6089
2221,6090
2206,6091
2189,6092
2184,6093
2195,6094
2205,6095
2202,6096
2181,6097
2148,6098
2123,6099
2119,6100
2138,6101
2173,6102
2205,6103
2219,6104
2213,6105
2201,6106
2198,6107
2209,6108
2225,6109
2237,6110
2229,6111
2209,6112
2196,6113
2199,6114
2216,6115
2238,6116
2245,6117
2234,6118
2217,6119
2242,6120
2178,6121
2124,6122
2097,6123
2093,6124
2094,6125
2081,6126
2059,6127
2047,6128
2052,6129
2068,6130
2087,6131
2086,6132
2059,6133
2019,6134
1990,6135
1988,6136
2003,6137
2025,6138
2030,6139
2019,6140
2003,6141
1998,6142
2003,6143
2011,6144
2011,6145
1999,6146
1991,6147
2003,6148
2042,6149
1923,6150
1871,6151
1858,6152
1875,6153
1901,6154
1930,6155
1961,6156
1991,6157
2008,6158
1999,6159
1959,6160
1905,6161
1862,6162
1849,6163
1870,6164
1909,6165
1943,6166
1953,6167
1937,6168
1915,6169
1911,6170
1925,6171
1949,6172
1969,6173
1963,6174
1935,6175
1901,6176
1885,6177
1885,6178
1909,6179
1948,6180
1957,6181
1967,6182
1975,6183
1977,6184
1982,6185
1999,6186
2020,6187
2026,6188
2015,6189
1994,6190
1973,6191
1971,6192
1991,6193
2015,6194
2031,6195
2030,6196
2018,6197
1999,6198
2001,6199
2026,6200
2062,6201
2091,6202
2101,6203
2087,6204
2069,6205
2065,6206
2066,6207
2059,6208
2039,6209
2072,6210
2045,6211
1997,6212
1957,6213
1954,6214
1985,6215
2023,6216
2043,6217
2039,6218
2013,6219
1981,6220
1957,6221
1951,6222
1957,6223
1953,6224
1935,6225
1915,6226
1910,6227
1922,6228
1945,6229
1962,6230
1951,6231
1927,6232
1906,6233
1906,6234
1927,6235
1956,6236
1977,6237
1981,6238
1973,6239
2025,6240
2014,6241
2021,6242
2037,6243
2061,6244
2079,6245
2083,6246
2078,6247
2072,6248
2082,6249
2105,6250
2133,6251
2152,6252
2149,6253
2135,6254
2136,6255
2155,6256
2171,6257
2166,6258
2145,6259
2114,6260
2083,6261
2073,6262
2076,6263
2089,6264
2100,6265
2099,6266
2085,6267
2065,6268
2051,6269
2047,6270
2074,6271
2101,6272
2115,6273
2103,6274
2076,6275
2052,6276
2042,6277
2047,6278
2060,6279
2066,6280
2056,6281
2034,6282
2015,6283
2007,6284
2009,6285
2014,6286
2004,6287
1978,6288
1958,6289
1957,6290
1974,6291
2007,6292
2035,6293
2037,6294
2015,6295
1987,6296
1971,6297
1973,6298
1982,6299
2007,6300
2017,6301
2020,6302
2012,6303
1999,6304
1995,6305
1997,6306
2004,6307
2007,6308
1994,6309
1972,6310
1983,6311
2062,6312
2205,6313
2391,6314
2596,6315
2778,6316
2914,6317
3013,6318
3043,6319
2957,6320
2787,6321
2577,6322
2344,6323
2104,6324
1874,6325
1642,6326
1427,6327
1281,6328
1210,6329
1531,6330
1562,6331
1593,6332
1641,6333
1709,6334
1786,6335
1863,6336
1926,6337
1965,6338
1986,6339
1998,6340
2015,6341
2042,6342
2068,6343
2073,6344
2051,6345
2012,6346
1988,6347
1994,6348
2022,6349
2055,6350
2071,6351
2073,6352
2077,6353
2091,6354
2116,6355
2137,6356
2139,6357
2122,6358
2090,6359
2141,6360
2123,6361
2118,6362
2135,6363
2175,6364
2215,6365
2233,6366
2229,6367
2218,6368
2209,6369
2200,6370
2186,6371
2150,6372
2117,6373
2101,6374
2106,6375
2127,6376
2149,6377
2160,6378
2149,6379
2123,6380
2098,6381
2092,6382
2108,6383
2136,6384
2162,6385
2169,6386
2162,6387
2158,6388
2178,6389
2195,6390
2201,6391
2218,6392
2228,6393
2217,6394
2193,6395
2164,6396
2153,6397
2161,6398
2183,6399
2202,6400
2200,6401
2186,6402
2175,6403
2189,6404
2219,6405
2251,6406
2255,6407
2225,6408
2179,6409
2147,6410
2150,6411
2178,6412
2211,6413
2223,6414
2210,6415
2181,6416
2149,6417
2132,6418
2133,6419
2107,6420
2154,6421
2193,6422
2197,6423
2171,6424
2137,6425
2103,6426
2082,6427
2070,6428
2043,6429
2003,6430
1959,6431
1945,6432
1965,6433
2002,6434
2027,6435
2027,6436
2011,6437
2001,6438
2007,6439
2031,6440
2070,6441
2087,6442
2069,6443
2028,6444
1988,6445
1965,6446
1963,6447
1966,6448
1957,6449
2009,6450
2009,6451
1993,6452
1977,6453
1977,6454
1999,6455
2031,6456
2053,6457
2054,6458
2029,6459
2009,6460
1998,6461
1997,6462
2005,6463
2006,6464
1993,6465
1977,6466
1967,6467
1958,6468
1959,6469
1959,6470
1948,6471
1927,6472
1907,6473
1911,6474
1930,6475
1943,6476
1938,6477
1919,6478
1897,6479
1925,6480
1901,6481
1898,6482
1915,6483
1947,6484
1973,6485
1976,6486
1961,6487
1942,6488
1938,6489
1954,6490
1987,6491
2011,6492
2014,6493
2003,6494
1998,6495
2007,6496
2026,6497
2037,6498
2031,6499
2014,6500
1994,6501
1983,6502
1990,6503
2007,6504
2017,6505
2007,6506
1979,6507
1957,6508
1959,6509
1971,6510
1970,6511
1987,6512
2009,6513
2010,6514
1991,6515
1964,6516
1953,6517
1957,6518
1975,6519
1993,6520
1989,6521
1966,6522
1939,6523
1927,6524
1937,6525
1959,6526
1969,6527
1959,6528
1946,6529
1949,6530
1975,6531
2015,6532
2040,6533
2029,6534
1985,6535
1933,6536
1913,6537
1937,6538
1995,6539
2005,6540
2022,6541
2035,6542
2033,6543
2025,6544
2025,6545
2043,6546
2074,6547
2095,6548
2097,6549
2085,6550
2077,6551
2087,6552
2119,6553
2161,6554
2182,6555
2171,6556
2139,6557
2117,6558
2119,6559
2145,6560
2182,6561
2203,6562
2198,6563
2175,6564
2169,6565
2167,6566
2167,6567
2169,6568
2159,6569
2226,6570
2193,6571
2129,6572
2058,6573
2010,6574
1999,6575
2021,6576
2043,6577
2046,6578
2028,6579
2009,6580
2004,6581
2009,6582
2014,6583
2012,6584
2004,6585
1995,6586
1996,6587
2004,6588
2015,6589
2015,6590
1998,6591
1974,6592
1953,6593
1946,6594
1958,6595
1977,6596
1990,6597
1995,6598
1994,6599
2044,6600
2006,6601
1970,6602
1946,6603
1932,6604
1925,6605
1925,6606
1946,6607
2005,6608
2122,6609
2279,6610
2462,6611
2635,6612
2761,6613
2841,6614
2861,6615
2787,6616
2650,6617
2483,6618
2275,6619
2053,6620
1827,6621
1599,6622
1378,6623
1221,6624
1149,6625
1147,6626
1197,6627
1271,6628
1351,6629
1598,6630
1643,6631
1710,6632
1785,6633
1861,6634
1926,6635
1976,6636
2014,6637
2052,6638
2078,6639
2078,6640
2051,6641
2015,6642
1992,6643
1997,6644
2025,6645
2063,6646
2086,6647
2093,6648
2087,6649
2083,6650
2093,6651
2115,6652
2134,6653
2131,6654
2109,6655
2086,6656
2087,6657
2119,6658
2163,6659
2170,6660
2171,6661
2158,6662
2135,6663
2118,6664
2126,6665
2163,6666
2207,6667
2238,6668
2241,6669
2216,6670
2178,6671
2158,6672
2159,6673
2167,6674
2175,6675
2169,6676
2155,6677
2147,6678
2163,6679
2190,6680
2210,6681
2204,6682
2186,6683
2169,6684
2171,6685
2197,6686
2236,6687
2269,6688
2276,6689
2292,6690
2301,6691
2301,6692
2306,6693
2318,6694
2332,6695
2332,6696
2305,6697
2262,6698
2223,6699
2211,6700
2223,6701
2245,6702
2257,6703
2233,6704
2196,6705
2167,6706
2171,6707
2207,6708
2248,6709
2271,6710
2261,6711
2220,6712
2175,6713
2161,6714
2175,6715
2199,6716
2207,6717
2195,6718
2170,6719
2124,6720
2091,6721
2076,6722
2079,6723
2093,6724
2098,6725
2079,6726
2054,6727
2040,6728
2047,6729
2065,6730
2061,6731
2027,6732
1980,6733
1939,6734
1919,6735
1928,6736
1956,6737
1979,6738
1980,6739
1959,6740
1932,6741
1923,6742
1937,6743
1967,6744
1992,6745
1994,6746
1977,6747
1949,6748
1933,6749
1911,6750
1942,6751
1981,6752
2011,6753
2013,6754
1994,6755
1967,6756
1961,6757
1973,6758
1999,6759
2019,6760
2021,6761
2005,6762
1982,6763
1971,6764
1981,6765
2013,6766
2038,6767
2051,6768
2046,6769
2035,6770
2021,6771
2013,6772
1993,6773
1957,6774
1922,6775
1906,6776
1919,6777
1955,6778
1992,6779
1926,6780
1954,6781
1974,6782
1978,6783
1971,6784
1967,6785
1975,6786
1996,6787
2015,6788
2013,6789
1997,6790
1975,6791
1967,6792
1978,6793
2001,6794
2018,6795
2014,6796
1987,6797
1959,6798
1957,6799
1982,6800
2018,6801
2039,6802
2037,6803
2020,6804
2006,6805
2002,6806
2009,6807
2017,6808
2005,6809
1988,6810
1979,6811
1971,6812
1978,6813
2005,6814
2038,6815
2062,6816
2058,6817
2030,6818
1998,6819
1979,6820
1983,6821
2006,6822
2028,6823
2040,6824
2030,6825
2015,6826
2017,6827
2029,6828
2047,6829
2062,6830
2052,6831
2026,6832
2009,6833
2013,6834
2030,6835
2046,6836
2046,6837
2030,6838
2004,6839
2088,6840
2082,6841
2084,6842
2097,6843
2121,6844
2141,6845
2140,6846
2125,6847
2113,6848
2111,6849
2119,6850
2127,6851
2123,6852
2107,6853
2093,6854
2087,6855
2093,6856
2106,6857
2117,6858
2107,6859
2083,6860
2055,6861
2053,6862
2073,6863
2089,6864
2071,6865
2022,6866
1969,6867
1935,6868
1937,6869
1969,6870
1986,6871
2011,6872
2027,6873
2025,6874
2004,6875
1981,6876
1971,6877
1983,6878
2022,6879
2063,6880
2079,6881
2079,6882
2071,6883
2065,6884
2059,6885
2050,6886
2024,6887
1982,6888
1936,6889
1906,6890
1905,6891
1937,6892
1985,6893
2030,6894
2083,6895
2157,6896
2268,6897
2425,6898
2606,6899
2404,6900
2226,6901
2029,6902
1810,6903
1561,6904
1332,6905
1187,6906
1151,6907
1194,6908
1259,6909
1321,6910
1366,6911
1418,6912
1482,6913
1553,6914
1617,6915
1666,6916
1706,6917
1747,6918
1797,6919
1854,6920
1919,6921
1980,6922
2026,6923
2055,6924
2079,6925
2111,6926
2148,6927
2172,6928
2175,6929
2146,6930
2129,6931
2115,6932
2115,6933
2136,6934
2168,6935
2198,6936
2201,6937
2174,6938
2135,6939
2103,6940
2097,6941
2113,6942
2134,6943
2145,6944
2143,6945
2139,6946
2154,6947
2187,6948
2223,6949
2242,6950
2226,6951
2191,6952
2150,6953
2127,6954
2124,6955
2138,6956
2146,6957
2139,6958
2125,6959
2231,6960
2233,6961
2246,6962
2259,6963
2263,6964
2247,6965
2219,6966
2194,6967
2183,6968
2205,6969
2247,6970
2284,6971
2294,6972
2274,6973
2245,6974
2223,6975
2228,6976
2253,6977
2281,6978
2291,6979
2276,6980
2255,6981
2251,6982
2261,6983
2277,6984
2278,6985
2257,6986
2222,6987
2193,6988
2188,6989
2233,6990
2241,6991
2263,6992
2277,6993
2261,6994
2221,6995
2181,6996
2161,6997
2166,6998
2190,6999
2197,7000
2175,7001
2145,7002
2122,7003
2118,7004
2125,7005
2134,7006
2119,7007
2091,7008
2062,7009
2044,7010
2046,7011
2058,7012
2061,7013
2043,7014
2009,7015
1974,7016
1965,7017
1977,7018
1995,7019
1958,7020
1983,7021
1979,7022
1953,7023
1917,7024
1897,7025
1905,7026
1931,7027
1955,7028
1957,7029
1938,7030
1918,7031
1915,7032
1933,7033
1957,7034
1975,7035
1981,7036
1979,7037
1979,7038
1987,7039
1997,7040
2006,7041
2003,7042
1983,7043
1962,7044
1957,7045
1967,7046
1983,7047
1997,7048
1986,7049
1959,7050
1930,7051
1895,7052
1876,7053
1884,7054
1915,7055
1949,7056
1960,7057
1947,7058
1926,7059
1913,7060
1923,7061
1941,7062
1956,7063
1950,7064
1931,7065
1905,7066
1897,7067
1911,7068
1941,7069
1964,7070
1970,7071
1961,7072
1949,7073
1950,7074
1967,7075
1998,7076
2022,7077
2029,7078
2021,7079
1894,7080
1900,7081
1929,7082
1970,7083
2002,7084
2001,7085
1977,7086
1947,7087
1931,7088
1941,7089
1970,7090
1999,7091
2003,7092
1979,7093
1949,7094
1927,7095
1931,7096
1958,7097
1992,7098
2005,7099
1996,7100
1980,7101
1991,7102
2031,7103
2079,7104
2102,7105
2089,7106
2054,7107
2012,7108
1991,7109
1977,7110
1982,7111
2001,7112
2021,7113
2030,7114
2029,7115
2028,7116
2039,7117
2063,7118
2090,7119
2102,7120
2083,7121
2031,7122
1980,7123
1965,7124
1983,7125
2013,7126
2029,7127
2027,7128
2017,7129
2021,7130
2066,7131
2131,7132
2182,7133
2187,7134
2150,7135
2107,7136
2087,7137
2090,7138
2109,7139
2117,7140
2150,7141
2175,7142
2187,7143
2178,7144
2150,7145
2119,7146
2087,7147
2052,7148
2003,7149
1960,7150
1933,7151
1939,7152
1971,7153
2007,7154
2017,7155
2002,7156
1978,7157
1965,7158
1983,7159
2023,7160
2059,7161
2063,7162
2035,7163
1995,7164
1966,7165
1965,7166
1989,7167
2026,7168
2057,7169
1966,7170
1943,7171
1918,7172
1893,7173
1891,7174
1912,7175
1953,7176
2003,7177
2065,7178
2150,7179
2270,7180
2429,7181
2617,7182
2783,7183
2901,7184
2931,7185
2844,7186
2671,7187
2490,7188
2329,7189
2158,7190
1947,7191
1687,7192
1420,7193
1233,7194
1162,7195
1190,7196
1259,7197
1337,7198
1413,7199
1727,7200
1751,7201
1802,7202
1882,7203
1977,7204
2047,7205
2078,7206
2083,7207
2086,7208
2101,7209
2126,7210
2149,7211
2155,7212
2135,7213
2103,7214
2088,7215
2092,7216
2111,7217
2139,7218
2152,7219
2139,7220
2111,7221
2094,7222
2099,7223
2121,7224
2139,7225
2133,7226
2114,7227
2099,7228
2115,7229
2113,7230
2099,7231
2104,7232
2113,7233
2108,7234
2087,7235
2061,7236
2045,7237
2059,7238
2094,7239
2125,7240
2135,7241
2130,7242
2125,7243
2141,7244
2174,7245
2198,7246
2190,7247
2161,7248
2130,7249
2119,7250
2141,7251
2186,7252
2232,7253
2251,7254
2237,7255
2212,7256
2190,7257
2188,7258
2203,7259
2281,7260
2307,7261
2309,7262
2282,7263
2249,7264
2229,7265
2225,7266
2230,7267
2233,7268
2225,7269
2204,7270
2184,7271
2178,7272
2195,7273
2219,7274
2231,7275
2219,7276
2197,7277
2173,7278
2161,7279
2157,7280
2164,7281
2163,7282
2143,7283
2120,7284
2111,7285
2126,7286
2159,7287
2189,7288
2195,7289
2061,7290
2026,7291
1996,7292
1985,7293
1999,7294
2029,7295
2053,7296
2051,7297
2033,7298
2007,7299
1989,7300
1985,7301
1990,7302
1987,7303
1959,7304
1922,7305
1893,7306
1893,7307
1926,7308
1974,7309
2005,7310
2004,7311
1983,7312
1955,7313
1947,7314
1966,7315
1993,7316
2006,7317
1988,7318
1949,7319
1971,7320
1965,7321
1975,7322
2001,7323
2027,7324
2030,7325
2013,7326
1988,7327
1972,7328
1971,7329
1983,7330
1995,7331
1992,7332
1976,7333
1958,7334
1957,7335
1977,7336
2002,7337
2015,7338
2009,7339
1987,7340
1972,7341
1982,7342
2013,7343
2039,7344
2044,7345
2019,7346
1981,7347
1955,7348
1955,7349
1962,7350
1972,7351
1993,7352
2007,7353
2003,7354
1989,7355
1982,7356
1999,7357
2033,7358
2065,7359
2075,7360
2039,7361
1975,7362
1918,7363
1902,7364
1925,7365
1963,7366
1990,7367
1999,7368
1992,7369
1983,7370
1985,7371
1998,7372
2013,7373
2017,7374
2011,7375
2007,7376
2021,7377
2036,7378
2038,7379
2025,7380
2051,7381
2052,7382
2027,7383
1999,7384
1987,7385
2001,7386
2030,7387
2054,7388
2047,7389
2022,7390
1992,7391
1979,7392
1995,7393
2020,7394
2035,7395
2031,7396
2015,7397
2005,7398
2020,7399
2052,7400
2085,7401
2096,7402
2068,7403
2014,7404
1980,7405
1981,7406
2013,7407
2052,7408
2070,7409
2089,7410
2074,7411
2054,7412
2037,7413
2039,7414
2065,7415
2100,7416
2121,7417
2122,7418
2109,7419
2102,7420
2115,7421
2153,7422
2193,7423
2202,7424
2178,7425
2143,7426
2117,7427
2111,7428
2123,7429
2123,7430
2095,7431
2052,7432
2015,7433
2011,7434
2036,7435
2068,7436
2078,7437
2059,7438
2023,7439
1992,7440
1971,7441
1978,7442
2009,7443
2045,7444
2063,7445
2045,7446
2003,7447
1958,7448
1931,7449
1932,7450
1950,7451
1969,7452
1975,7453
1975,7454
1985,7455
2011,7456
2045,7457
2065,7458
2057,7459
2026,7460
1987,7461
1954,7462
1937,7463
1933,7464
1940,7465
1965,7466
2015,7467
2105,7468
2241,7469
2863,7470
2690,7471
2490,7472
2283,7473
2053,7474
1802,7475
1531,7476
1282,7477
1127,7478
1091,7479
1133,7480
1196,7481
1252,7482
1315,7483
1387,7484
1453,7485
1511,7486
1563,7487
1610,7488
1657,7489
1706,7490
1767,7491
1846,7492
1929,7493
1993,7494
2026,7495
2037,7496
2051,7497
2076,7498
2110,7499
2179,7500
2187,7501
2168,7502
2133,7503
2097,7504
2084,7505
2097,7506
2120,7507
2143,7508
2151,7509
2146,7510
2137,7511
2138,7512
2151,7513
2163,7514
2167,7515
2159,7516
2147,7517
2147,7518
2171,7519
2203,7520
2227,7521
2217,7522
2171,7523
2115,7524
2081,7525
2079,7526
2100,7527
2130,7528
2145,7529
2244,7530
2227,7531
2197,7532
2163,7533
2155,7534
2179,7535
2212,7536
2229,7537
2236,7538
2252,7539
2293,7540
2351,7541
2398,7542
2411,7543
2385,7544
2325,7545
2250,7546
2187,7547
2152,7548
2150,7549
2159,7550
2165,7551
2165,7552
2159,7553
2163,7554
2183,7555
2211,7556
2228,7557
2227,7558
2221,7559
2195,7560
2163,7561
2159,7562
2196,7563
2251,7564
2287,7565
2289,7566
2255,7567
2201,7568
2155,7569
2134,7570
2133,7571
2143,7572
2153,7573
2162,7574
2185,7575
2215,7576
2227,7577
2201,7578
2133,7579
2043,7580
1969,7581
1937,7582
1946,7583
1979,7584
2003,7585
1999,7586
1975,7587
1953,7588
1951,7589
2000,7590
1989,7591
1990,7592
1986,7593
1961,7594
1928,7595
1899,7596
1902,7597
1929,7598
1967,7599
1995,7600
1994,7601
1979,7602
1970,7603
1976,7604
1998,7605
2030,7606
2045,7607
2036,7608
2011,7609
1981,7610
1964,7611
1959,7612
1955,7613
1945,7614
1935,7615
1938,7616
1966,7617
2012,7618
2044,7619
1930,7620
1955,7621
1965,7622
1958,7623
1945,7624
1946,7625
1966,7626
1997,7627
2017,7628
2010,7629
1985,7630
1963,7631
1966,7632
1987,7633
2015,7634
2034,7635
2027,7636
2010,7637
1999,7638
2002,7639
2021,7640
2050,7641
2065,7642
2045,7643
2011,7644
1998,7645
2019,7646
2047,7647
2056,7648
2025,7649
1986,7650
2017,7651
2031,7652
2033,7653
2039,7654
2043,7655
2035,7656
2005,7657
1966,7658
1932,7659
1919,7660
1938,7661
1975,7662
2014,7663
2038,7664
2043,7665
2041,7666
2043,7667
2053,7668
2061,7669
2057,7670
2029,7671
1987,7672
1949,7673
1942,7674
1972,7675
2017,7676
2038,7677
2025,7678
1983,7679
1927,7680
1925,7681
1938,7682
1965,7683
1997,7684
2013,7685
2006,7686
1982,7687
1959,7688
1953,7689
1971,7690
2002,7691
2008,7692
1991,7693
1966,7694
1951,7695
1958,7696
1989,7697
2022,7698
2039,7699
2038,7700
2029,7701
2020,7702
2021,7703
2033,7704
2035,7705
2021,7706
2005,7707
1999,7708
2012,7709
2099,7710
2143,7711
2177,7712
2179,7713
2141,7714
2093,7715
2060,7716
2063,7717
2094,7718
2129,7719
2153,7720
2152,7721
2131,7722
2104,7723
2086,7724
2077,7725
2083,7726
2086,7727
2077,7728
2055,7729
2025,7730
2003,7731
1993,7732
1988,7733
1979,7734
1969,7735
1960,7736
1969,7737
1996,7738
2027,7739
2039,7740
2066,7741
2070,7742
2065,7743
2057,7744
2058,7745
2066,7746
2072,7747
2065,7748
2029,7749
1977,7750
1934,7751
1919,7752
1927,7753
1935,7754
1931,7755
1913,7756
1905,7757
1928,7758
2003,7759
2138,7760
2307,7761
2485,7762
2648,7763
2783,7764
2898,7765
2949,7766
2875,7767
2705,7768
2486,7769
1268,7770
1195,7771
1188,7772
1237,7773
1326,7774
1427,7775
1516,7776
1573,7777
1599,7778
1621,7779
1661,7780
1719,7781
1793,7782
1864,7783
1930,7784
1999,7785
2062,7786
2117,7787
2153,7788
2162,7789
2157,7790
2131,7791
2106,7792
2094,7793
2098,7794
2117,7795
2140,7796
2154,7797
2157,7798
2145,7799
2087,7800
2074,7801
2089,7802
2123,7803
2151,7804
2148,7805
2119,7806
2090,7807
2075,7808
2075,7809
2085,7810
2095,7811
2083,7812
2060,7813
2040,7814
2035,7815
2055,7816
2099,7817
2136,7818
2146,7819
2139,7820
2133,7821
2137,7822
2161,7823
2207,7824
2239,7825
2241,7826
2227,7827
2216,7828
2217,7829
2166,7830
2190,7831
2233,7832
2270,7833
2282,7834
2270,7835
2253,7836
2250,7837
2262,7838
2284,7839
2298,7840
2301,7841
2297,7842
2299,7843
2315,7844
2338,7845
2349,7846
2327,7847
2275,7848
2227,7849
2202,7850
2203,7851
2223,7852
2244,7853
2245,7854
2223,7855
2189,7856
2170,7857
2167,7858
2172,7859
2191,7860
2227,7861
2229,7862
2196,7863
2151,7864
2119,7865
2111,7866
2115,7867
2103,7868
2070,7869
2023,7870
1982,7871
1964,7872
1967,7873
1979,7874
1981,7875
1969,7876
1949,7877
1939,7878
1951,7879
1975,7880
1990,7881
1971,7882
1923,7883
1870,7884
1846,7885
1861,7886
1894,7887
1930,7888
1951,7889
2001,7890
1977,7891
1931,7892
1893,7893
1893,7894
1919,7895
1959,7896
1980,7897
1972,7898
1954,7899
1946,7900
1963,7901
2006,7902
2047,7903
2063,7904
2053,7905
2030,7906
2017,7907
2023,7908
2043,7909
2045,7910
2025,7911
1995,7912
1969,7913
1965,7914
1978,7915
1990,7916
1988,7917
1976,7918
1959,7919
1974,7920
1950,7921
1946,7922
1965,7923
1991,7924
2001,7925
1989,7926
1966,7927
1951,7928
1958,7929
1985,7930
2013,7931
2023,7932
2013,7933
1989,7934
1973,7935
1974,7936
1989,7937
2007,7938
2017,7939
2014,7940
1999,7941
1994,7942
2009,7943
2028,7944
2028,7945
2008,7946
1977,7947
1949,7948
1945,7949
2007,7950
2018,7951
2033,7952
2043,7953
2035,7954
2017,7955
1998,7956
1989,7957
1993,7958
2006,7959
2014,7960
2020,7961
2023,7962
2027,7963
2033,7964
2039,7965
2043,7966
2039,7967
2026,7968
2011,7969
2007,7970
2010,7971
2021,7972
2023,7973
2007,7974
1988,7975
1976,7976
1979,7977
2003,7978
2027,7979
2031,7980
2067,7981
2085,7982
2082,7983
2074,7984
2066,7985
2063,7986
2073,7987
2071,7988
2047,7989
2020,7990
2003,7991
2012,7992
2047,7993
2092,7994
2118,7995
2117,7996
2098,7997
2077,7998
2073,7999
2084,8000
2100,8001
2104,8002
2099,8003
2087,8004
2075,8005
2073,8006
2085,8007
2106,8008
2121,8009
2142,8010
2122,8011
2076,8012
2028,8013
2003,8014
2006,8015
2028,8016
2037,8017
2025,8018
2013,8019
2015,8020
2034,8021
2062,8022
2074,8023
2059,8024
2023,8025
1990,8026
1982,8027
2007,8028
2040,8029
2061,8030
2058,8031
2037,8032
2009,8033
1988,8034
1993,8035
2018,8036
2033,8037
2024,8038
1998,8039
2013,8040
1972,8041
1949,8042
1954,8043
1989,8044
2037,8045
2087,8046
2135,8047
2211,8048
2335,8049
2501,8050
2678,8051
2828,8052
2900,8053
2855,8054
2722,8055
2574,8056
2417,8057
2241,8058
2035,8059
1800,8060
1538,8061
1325,8062
1206,8063
1183,8064
1223,8065
1290,8066
1363,8067
1432,8068
1509,8069
1773,8070
1813,8071
1865,8072
1923,8073
1975,8074
2017,8075
2045,8076
2070,8077
2095,8078
2124,8079
2138,8080
2132,8081
2116,8082
2109,8083
2130,8084
2169,8085
2206,8086
2229,8087
2231,8088
2215,8089
2179,8090
2134,8091
2093,8092
2059,8093
2033,8094
2018,8095
2013,8096
2031,8097
2070,8098
2111,8099
2099,8100
2131,8101
2145,8102
2136,8103
2115,8104
2106,8105
2123,8106
2155,8107
2183,8108
2190,8109
2185,8110
2181,8111
2193,8112
2227,8113
2265,8114
2281,8115
2265,8116
2230,8117
2200,8118
2193,8119
2207,8120
2230,8121
2245,8122
2248,8123
2251,8124
2262,8125
2277,8126
2286,8127
2274,8128
2238,8129
2215,8130
2219,8131
2210,8132
2204,8133
2216,8134
2244,8135
2269,8136
2268,8137
2246,8138
2219,8139
2206,8140
2219,8141
2249,8142
2270,8143
2265,8144
2250,8145
2238,8146
2242,8147
2253,8148
2265,8149
2255,8150
2219,8151
2171,8152
2136,8153
2137,8154
2166,8155
2203,8156
2210,8157
2193,8158
2173,8159
2010,8160
1979,8161
1975,8162
1991,8163
2006,8164
1995,8165
1957,8166
1909,8167
1874,8168
1867,8169
1890,8170
1923,8171
1937,8172
1927,8173
1905,8174
1895,8175
1905,8176
1927,8177
1946,8178
1946,8179
1933,8180
1922,8181
1925,8182
1945,8183
1969,8184
1974,8185
1959,8186
1932,8187
1913,8188
1913,8189
1926,8190
1939,8191
1967,8192
1983,8193
1979,8194
1961,8195
1943,8196
1946,8197
1973,8198
2005,8199
2015,8200
2002,8201
1973,8202
1955,8203
1953,8204
1958,8205
1963,8206
1958,8207
1942,8208
1931,8209
1939,8210
1965,8211
1983,8212
1989,8213
1966,8214
1929,8215
1894,8216
1898,8217
1947,8218
2014,8219
1835,8220
1866,8221
1875,8222
1864,8223
1868,8224
1897,8225
1934,8226
1953,8227
1926,8228
1869,8229
1815,8230
1796,8231
1817,8232
1864,8233
1918,8234
1950,8235
1958,8236
1937,8237
1877,8238
1825,8239
1813,8240
1843,8241
1881,8242
1909,8243
1922,8244
1929,8245
1949,8246
1975,8247
1988,8248
1982,8249
1983,8250
1972,8251
1950,8252
1938,8253
1941,8254
1959,8255
1979,8256
1991,8257
1991,8258
1979,8259
1972,8260
1978,8261
1991,8262
2001,8263
1999,8264
1993,8265
1996,8266
2004,8267
2021,8268
2042,8269
2045,8270
2021,8271
1991,8272
1977,8273
1993,8274
2031,8275
2071,8276
2086,8277
2083,8278
2073,8279
2031,8280
2006,8281
2003,8282
2026,8283
2060,8284
2075,8285
2062,8286
2037,8287
2018,8288
2019,8289
2033,8290
2054,8291
2054,8292
2036,8293
2017,8294
2009,8295
2023,8296
2043,8297
2047,8298
2033,8299
2008,8300
1998,8301
2017,8302
2069,8303
2126,8304
2158,8305
2153,8306
2116,8307
2069,8308
2040,8309
2041,8310
2036,8311
2035,8312
2055,8313
2082,8314
2095,8315
2087,8316
2084,8317
2094,8318
2119,8319
2152,8320
2162,8321
2151,8322
2126,8323
2118,8324
2131,8325
2167,8326
2204,8327
2225,8328
2215,8329
2182,8330
2171,8331
2181,8332
2209,8333
2229,8334
2222,8335
2188,8336
2139,8337
2103,8338
2089,8339
2191,8340
2335,8341
2517,8342
2708,8343
2869,8344
2967,8345
3042,8346
3061,8347
2987,8348
2828,8349
2623,8350
2401,8351
2178,8352
1972,8353
1758,8354
1574,8355
1455,8356
1406,8357
1415,8358
1478,8359
1577,8360
1682,8361
1754,8362
1785,8363
1805,8364
1809,8365
1812,8366
1827,8367
1869,8368
1923,8369
2025,8370
2000,8371
1961,8372
1916,8373
1887,8374
1876,8375
1895,8376
1909,8377
1886,8378
1827,8379
1753,8380
1708,8381
1707,8382
1732,8383
1775,8384
1832,8385
1869,8386
1871,8387
1841,8388
1789,8389
1749,8390
1739,8391
1777,8392
1835,8393
1891,8394
1918,8395
1938,8396
1926,8397
1914,8398
1930,8399
2066,8400
2113,8401
2165,8402
2213,8403
2230,8404
2205,8405
2122,8406
1996,8407
1867,8408
1798,8409
1794,8410
1830,8411
1845,8412
1834,8413
1825,8414
1843,8415
1919,8416
2055,8417
2217,8418
2358,8419
2437,8420
2440,8421
2379,8422
2334,8423
2349,8424
2403,8425
2455,8426
2508,8427
2575,8428
2679,8429
3823,8430
3229,8431
2614,8432
2170,8433
1991,8434
2101,8435
2498,8436
3097,8437
3374,8438
3141,8439
2607,8440
2061,8441
1660,8442
1445,8443
1469,8444
1657,8445
1928,8446
2172,8447
2307,8448
2347,8449
2331,8450
2307,8451
2301,8452
2347,8453
2429,8454
2519,8455
2589,8456
2646,8457
2725,8458
2826,8459
3317,8460
3397,8461
3481,8462
3594,8463
3782,8464
4095,8465
4095,8466
4095,8467
4095,8468
4095,8469
4095,8470
4095,8471
4095,8472
4059,8473
3867,8474
3554,8475
3141,8476
2717,8477
2337,8478
2054,8479
1865,8480
1752,8481
1670,8482
1573,8483
1468,8484
1359,8485
1250,8486
1148,8487
1079,8488
1031,8489
934,8490
950,8491
959,8492
979,8493
1000,8494
1011,8495
1028,8496
1046,8497
1042,8498
1011,8499
971,8500
943,8501
938,8502
968,8503
1011,8504
1063,8505
1098,8506
1070,8507
1032,8508
1045,8509
1103,8510
1149,8511
1162,8512
1129,8513
1089,8514
1038,8515
1003,8516
945,8517
858,8518
792,8519
1320,8520
1333,8521
1329,8522
1321,8523
1338,8524
1366,8525
1385,8526
1388,8527
1428,8528
1527,8529
1599,8530
1639,8531
1642,8532
1589,8533
1521,8534
1468,8535
1457,8536
1471,8537
1494,8538
1497,8539
1464,8540
1407,8541
1359,8542
1335,8543
1346,8544
1406,8545
1483,8546
1527,8547
1511,8548
1459,8549
1245,8550
1233,8551
1253,8552
1277,8553
1275,8554
1253,8555
1216,8556
1186,8557
1191,8558
1217,8559
1259,8560
1296,8561
1306,8562
1274,8563
1251,8564
1249,8565
1257,8566
1256,8567
1246,8568
1253,8569
1290,8570
1358,8571
1429,8572
1495,8573
1518,8574
1499,8575
1444,8576
1351,8577
1265,8578
1237,8579
1265,8580
1369,8581
1467,8582
1531,8583
1567,8584
1584,8585
1589,8586
1584,8587
1559,8588
1508,8589
1458,8590
1432,8591
1458,8592
1527,8593
1616,8594
1719,8595
1799,8596
1843,8597
1861,8598
1868,8599
1878,8600
1899,8601
1911,8602
1922,8603
1930,8604
1918,8605
1910,8606
1916,8607
1941,8608
1975,8609
2707,8610
2929,8611
2865,8612
1273,8613
0,8614
0,8615
0,8616
0,8617
0,8618
0,8619
899,8620
3268,8621
4095,8622
4095,8623
4095,8624
4095,8625
4095,8626
4095,8627
4095,8628
4095,8629
4095,8630
4095,8631
4095,8632
4095,8633
4095,8634
4095,8635
4095,8636
4095,8637
4095,8638
4095,8639
4095,8640
3988,8641
3358,8642
2623,8643
1992,8644
1565,8645
1194,8646
652,8647
398,8648
475,8649
721,8650
956,8651
1094,8652
1150,8653
1355,8654
1674,8655
1949,8656
2211,8657
2364,8658
2532,8659
2723,8660
2795,8661
2830,8662
3145,8663
3617,8664
4066,8665
4095,8666
4095,8667
4095,8668
4095,8669
3957,8670
3095,8671
2245,8672
1847,8673
1910,8674
2354,8675
2654,8676
2811,8677
2902,8678
2893,8679
2787,8680
2543,8681
2194,8682
1821,8683
1491,8684
1206,8685
989,8686
842,8687
764,8688
717,8689
585,8690
373,8691
170,8692
49,8693
28,8694
126,8695
327,8696
637,8697
988,8698
1325,8699
2777,8700
2843,8701
2749,8702
2411,8703
1855,8704
1325,8705
867,8706
498,8707
317,8708
289,8709
414,8710
643,8711
901,8712
1138,8713
1327,8714
1474,8715
1593,8716
1712,8717
1827,8718
1929,8719
1942,8720
1839,8721
1699,8722
1558,8723
1456,8724
1413,8725
1420,8726
1446,8727
1491,8728
1539,8729
1611,8730
1644,8731
1652,8732
1638,8733
1636,8734
1676,8735
1750,8736
1813,8737
1844,8738
1813,8739
1720,8740
1634,8741
1602,8742
1606,8743
1605,8744
1567,8745
1501,8746
1423,8747
1352,8748
1313,8749
1323,8750
1369,8751
1420,8752
1463,8753
1489,8754
1501,8755
1505,8756
1516,8757
1492,8758
1435,8759
1319,8760
1377,8761
1439,8762
1487,8763
1558,8764
1679,8765
1783,8766
1836,8767
1863,8768
1877,8769
1885,8770
1914,8771
1930,8772
1899,8773
1846,8774
1782,8775
1749,8776
1717,8777
1684,8778
1692,8779
1753,8780
1826,8781
1855,8782
1820,8783
1707,8784
1594,8785
1517,8786
1501,8787
1524,8788
1592,8789
1683,8790
1688,8791
1711,8792
1743,8793
1766,8794
1780,8795
1779,8796
1778,8797
1815,8798
1889,8799
1979,8800
2036,8801
2044,8802
1991,8803
1924,8804
1895,8805
1910,8806
1940,8807
1953,8808
1933,8809
1893,8810
1866,8811
1841,8812
1851,8813
1880,8814
1884,8815
1839,8816
1785,8817
1759,8818
1777,8819
1762,8820
1766,8821
1773,8822
1771,8823
1764,8824
1767,8825
1790,8826
1814,8827
1841,8828
1871,8829
1897,8830
1899,8831
1907,8832
1927,8833
1963,8834
1999,8835
2026,8836
2036,8837
2020,8838
2019,8839
2021,8840
2023,8841
2014,8842
1990,8843
1975,8844
1969,8845
1978,8846
1999,8847
2031,8848
2046,8849
2074,8850
2105,8851
2129,8852
2143,8853
2157,8854
2134,8855
2095,8856
2071,8857
2107,8858
2172,8859
2211,8860
2217,8861
2179,8862
2132,8863
2082,8864
2019,8865
1969,8866
1949,8867
1954,8868
1975,8869
1994,8870
1989,8871
1964,8872
1919,8873
1897,8874
1901,8875
1929,8876
1954,8877
1945,8878
1909,8879
1935,8880
1872,8881
1841,8882
1859,8883
1910,8884
1966,8885
1975,8886
1953,8887
1925,8888
1916,8889
1923,8890
1947,8891
1973,8892
1983,8893
1964,8894
1933,8895
1917,8896
1931,8897
1961,8898
1987,8899
2034,8900
2101,8901
2158,8902
2237,8903
2365,8904
2543,8905
2721,8906
2810,8907
2759,8908
2621,8909
1466,8910
1293,8911
1241,8912
1305,8913
1423,8914
1517,8915
1566,8916
1591,8917
1598,8918
1602,8919
1628,8920
1669,8921
1732,8922
1789,8923
1826,8924
1859,8925
1903,8926
1972,8927
2022,8928
2051,8929
2073,8930
2094,8931
2123,8932
2186,8933
2215,8934
2187,8935
2136,8936
2103,8937
2107,8938
2135,8939
2170,8940
2221,8941
2268,8942
2274,8943
2243,8944
2209,8945
2195,8946
2190,8947
2198,8948
2222,8949
2236,8950
2213,8951
2193,8952
2199,8953
2225,8954
2251,8955
2249,8956
2233,8957
2223,8958
2243,8959
2271,8960
2293,8961
2293,8962
2269,8963
2229,8964
2201,8965
2198,8966
2221,8967
2265,8968
2294,8969
2279,8970
2301,8971
2315,8972
2277,8973
2221,8974
2207,8975
2237,8976
2264,8977
2263,8978
2241,8979
2206,8980
2187,8981
2193,8982
2214,8983
2217,8984
2209,8985
2190,8986
2159,8987
2130,8988
2118,8989
2125,8990
2106,8991
2060,8992
2007,8993
1971,8994
1947,8995
1954,8996
1973,8997
1979,8998
1947,8999
1922,9000
1930,9001
1933,9002
1937,9003
1950,9004
1973,9005
1969,9006
1946,9007
1913,9008
1905,9009
1910,9010
1925,9011
1922,9012
1907,9013
1881,9014
1850,9015
1817,9016
1787,9017
1794,9018
1815,9019
1853,9020
1880,9021
1871,9022
1852,9023
1881,9024
1960,9025
2009,9026
1999,9027
1985,9028
2006,9029
2212,9030
2238,9031
2237,9032
2275,9033
2346,9034
2389,9035
2373,9036
2349,9037
2370,9038
2427,9039
2468,9040
2459,9041
2423,9042
2377,9043
2357,9044
2363,9045
2378,9046
2399,9047
2419,9048
2453,9049
2474,9050
2469,9051
2469,9052
2486,9053
2491,9054
2485,9055
2462,9056
2431,9057
2415,9058
2419,9059
2327,9060
2329,9061
2340,9062
2332,9063
2314,9064
2287,9065
2268,9066
2259,9067
2259,9068
2247,9069
2222,9070
2189,9071
2159,9072
2146,9073
2145,9074
2149,9075
2130,9076
2107,9077
2079,9078
2058,9079
2052,9080
2071,9081
2086,9082
2074,9083
2039,9084
2003,9085
1987,9086
1993,9087
2019,9088
2019,9089
1951,9090
1939,9091
1911,9092
1871,9093
1849,9094
1843,9095
1845,9096
1865,9097
1870,9098
1864,9099
1858,9100
1854,9101
1870,9102
1906,9103
1924,9104
1918,9105
1895,9106
1868,9107
1851,9108
1853,9109
1885,9110
1926,9111
1939,9112
1917,9113
1893,9114
1887,9115
1889,9116
1901,9117
1915,9118
1922,9119
2078,9120
2106,9121
2130,9122
2165,9123
2221,9124
2289,9125
2343,9126
2385,9127
2422,9128
2446,9129
2366,9130
2153,9131
1963,9132
1879,9133
1846,9134
1850,9135
1937,9136
2139,9137
2422,9138
2661,9139
2802,9140
2790,9141
2694,9142
2693,9143
2775,9144
2890,9145
2978,9146
3001,9147
2948,9148
2860,9149
2673,9150
2541,9151
2385,9152
2209,9153
2012,9154
1848,9155
1785,9156
1869,9157
2075,9158
2338,9159
2605,9160
2791,9161
2838,9162
2765,9163
2645,9164
2545,9165
2437,9166
2315,9167
2161,9168
1954,9169
1674,9170
1338,9171
1006,9172
773,9173
635,9174
567,9175
571,9176
632,9177
757,9178
1006,9179
2212,9180
2015,9181
1727,9182
1415,9183
1143,9184
917,9185
785,9186
761,9187
810,9188
883,9189
953,9190
999,9191
1083,9192
1225,9193
1384,9194
1453,9195
1407,9196
1302,9197
1299,9198
1442,9199
1661,9200
1927,9201
2197,9202
2426,9203
2585,9204
2663,9205
2683,9206
2646,9207
2570,9208
2445,9209
1482,9210
1454,9211
1450,9212
1423,9213
1410,9214
1452,9215
1553,9216
1701,9217
1851,9218
1975,9219
2071,9220
2151,9221
2223,9222
2280,9223
2294,9224
2262,9225
2170,9226
2083,9227
2070,9228
2116,9229
2184,9230
2241,9231
2282,9232
2309,9233
2332,9234
2357,9235
2374,9236
2341,9237
2265,9238
2171,9239
2066,9240
2007,9241
1963,9242
1950,9243
1982,9244
2010,9245
2003,9246
1975,9247
1946,9248
1963,9249
2029,9250
2115,9251
2178,9252
2187,9253
2155,9254
2134,9255
2154,9256
2222,9257
2311,9258
2367,9259
2379,9260
2355,9261
2346,9262
2371,9263
2451,9264
2531,9265
2558,9266
2530,9267
2478,9268
2439,9269
2292,9270
2275,9271
2318,9272
2386,9273
2414,9274
2383,9275
2303,9276
2235,9277
2207,9278
2234,9279
2275,9280
2277,9281
2249,9282
2211,9283
2202,9284
2227,9285
2261,9286
2265,9287
2258,9288
2269,9289
2271,9290
2257,9291
2247,9292
2235,9293
2142,9294
1955,9295
1743,9296
1595,9297
1577,9298
1659,9299
1814,9300
1885,9301
1924,9302
1922,9303
1889,9304
1868,9305
1887,9306
1951,9307
2042,9308
2108,9309
2129,9310
2118,9311
2101,9312
2117,9313
2179,9314
2242,9315
2266,9316
2249,9317
2206,9318
2181,9319
2187,9320
2221,9321
2237,9322
2214,9323
2169,9324
2137,9325
2142,9326
2183,9327
2247,9328
2289,9329
2318,9330
2383,9331
2397,9332
2372,9333
2350,9334
2352,9335
2381,9336
2393,9337
2403,9338
2390,9339
2369,9340
2348,9341
2337,9342
2330,9343
2281,9344
2193,9345
2089,9346
2011,9347
1988,9348
2021,9349
2059,9350
2060,9351
2021,9352
1967,9353
1940,9354
1953,9355
2010,9356
2056,9357
2042,9358
1969,9359
1963,9360
1950,9361
1940,9362
1943,9363
1985,9364
2045,9365
2088,9366
2102,9367
2108,9368
2133,9369
2181,9370
2242,9371
2264,9372
2241,9373
2184,9374
2131,9375
2114,9376
2148,9377
2210,9378
2245,9379
2247,9380
2234,9381
2233,9382
2251,9383
2294,9384
2332,9385
2338,9386
2308,9387
2267,9388
2243,9389
2127,9390
2099,9391
2119,9392
2163,9393
2172,9394
2140,9395
2093,9396
2089,9397
2114,9398
2153,9399
2171,9400
2143,9401
2074,9402
1992,9403
1940,9404
1935,9405
1976,9406
2009,9407
2013,9408
1983,9409
1951,9410
1941,9411
1963,9412
2007,9413
2019,9414
1996,9415
1953,9416
1919,9417
1914,9418
1954,9419
1851,9420
1862,9421
1863,9422
1863,9423
1903,9424
1980,9425
2089,9426
2239,9427
2422,9428
2589,9429
2707,9430
2780,9431
2829,9432
2807,9433
2719,9434
2591,9435
2414,9436
2187,9437
1935,9438
1702,9439
1490,9440
1342,9441
1249,9442
1195,9443
1160,9444
1153,9445
1191,9446
1269,9447
1362,9448
1417,9449
1702,9450
1785,9451
1831,9452
1853,9453
1878,9454
1922,9455
1988,9456
2030,9457
2033,9458
1999,9459
1965,9460
1958,9461
1989,9462
2043,9463
2073,9464
2065,9465
2025,9466
1999,9467
2005,9468
2054,9469
2102,9470
2116,9471
2092,9472
2051,9473
2028,9474
2052,9475
2110,9476
2153,9477
2154,9478
2117,9479
2163,9480
2119,9481
2085,9482
2083,9483
2127,9484
2173,9485
2184,9486
2158,9487
2117,9488
2095,9489
2106,9490
2151,9491
2180,9492
2171,9493
2133,9494
2095,9495
2087,9496
2122,9497
2179,9498
2205,9499
2190,9500
2151,9501
2127,9502
2133,9503
2182,9504
2231,9505
2245,9506
2222,9507
2185,9508
2169,9509
2197,9510
2186,9511
2219,9512
2273,9513
2299,9514
2283,9515
2235,9516
2199,9517
2193,9518
2226,9519
2265,9520
2267,9521
2235,9522
2190,9523
2163,9524
2171,9525
2214,9526
2239,9527
2226,9528
2178,9529
2136,9530
2123,9531
2151,9532
2197,9533
2217,9534
2199,9535
2141,9536
2092,9537
2075,9538
2100,9539
1996,9540
2033,9541
2056,9542
2043,9543
1997,9544
1949,9545
1931,9546
1955,9547
1994,9548
1993,9549
1961,9550
1905,9551
1863,9552
1859,9553
1900,9554
1945,9555
1954,9556
1930,9557
1891,9558
1865,9559
1867,9560
1903,9561
1931,9562
1928,9563
1898,9564
1868,9565
1858,9566
1878,9567
1923,9568
1945,9569
2129,9570
2129,9571
2077,9572
2004,9573
1959,9574
1956,9575
1982,9576
2002,9577
1997,9578
1963,9579
1931,9580
1918,9581
1939,9582
1973,9583
1983,9584
1969,9585
1931,9586
1899,9587
1895,9588
1942,9589
1991,9590
2005,9591
1977,9592
1933,9593
1915,9594
1928,9595
1964,9596
1977,9597
1959,9598
1915,9599
1954,9600
1911,9601
1880,9602
1884,9603
1931,9604
1977,9605
1991,9606
1972,9607
1938,9608
1927,9609
1947,9610
2001,9611
2038,9612
2043,9613
2011,9614
1976,9615
1971,9616
1999,9617
2041,9618
2061,9619
2058,9620
2031,9621
2012,9622
2017,9623
2053,9624
2091,9625
2097,9626
2068,9627
2026,9628
2007,9629
2045,9630
2039,9631
2070,9632
2117,9633
2139,9634
2127,9635
2087,9636
2053,9637
2044,9638
2063,9639
2073,9640
2068,9641
2057,9642
2039,9643
2034,9644
2051,9645
2095,9646
2127,9647
2126,9648
2095,9649
2065,9650
2061,9651
2098,9652
2151,9653
2177,9654
2163,9655
2122,9656
2090,9657
2087,9658
2130,9659
2108,9660
2141,9661
2161,9662
2145,9663
2097,9664
2055,9665
2043,9666
2067,9667
2099,9668
2093,9669
2052,9670
1997,9671
1959,9672
1951,9673
1983,9674
2022,9675
2034,9676
2005,9677
1959,9678
1935,9679
1944,9680
1985,9681
2007,9682
2001,9683
1965,9684
1933,9685
1922,9686
1946,9687
1993,9688
2014,9689
1983,9690
1971,9691
1925,9692
1861,9693
1822,9694
1818,9695
1865,9696
1929,9697
1992,9698
2058,9699
2151,9700
2301,9701
2510,9702
2721,9703
2868,9704
2934,9705
2875,9706
2721,9707
2555,9708
2415,9709
2269,9710
2078,9711
1838,9712
1561,9713
1333,9714
1219,9715
1223,9716
1269,9717
1311,9718
1329,9719
1649,9720
1662,9721
1690,9722
1755,9723
1864,9724
1973,9725
2043,9726
2058,9727
2035,9728
2022,9729
2034,9730
2078,9731
2115,9732
2118,9733
2089,9734
2063,9735
2065,9736
2099,9737
2145,9738
2158,9739
2133,9740
2092,9741
2070,9742
2075,9743
2119,9744
2166,9745
2179,9746
2152,9747
2110,9748
2088,9749
2106,9750
2090,9751
2116,9752
2155,9753
2166,9754
2143,9755
2102,9756
2075,9757
2077,9758
2115,9759
2152,9760
2152,9761
2123,9762
2085,9763
2066,9764
2077,9765
2121,9766
2150,9767
2148,9768
2118,9769
2089,9770
2087,9771
2121,9772
2171,9773
2194,9774
2181,9775
2140,9776
2119,9777
2131,9778
2181,9779
2157,9780
2205,9781
2238,9782
2233,9783
2196,9784
2159,9785
2149,9786
2181,9787
2229,9788
2244,9789
2219,9790
2173,9791
2146,9792
2147,9793
2182,9794
2218,9795
2223,9796
2198,9797
2158,9798
2132,9799
2141,9800
2190,9801
2225,9802
2223,9803
2186,9804
2143,9805
2131,9806
2156,9807
2190,9808
2196,9809
2153,9810
2149,9811
2110,9812
2055,9813
2021,9814
2027,9815
2069,9816
2092,9817
2078,9818
2035,9819
1989,9820
1973,9821
1999,9822
2040,9823
2051,9824
2025,9825
1975,9826
1944,9827
1942,9828
1978,9829
2015,9830
2023,9831
1991,9832
1943,9833
1925,9834
1946,9835
1997,9836
2031,9837
2027,9838
1992,9839
2010,9840
1964,9841
1937,9842
1937,9843
1978,9844
2026,9845
2042,9846
2020,9847
1981,9848
1964,9849
1979,9850
2021,9851
2046,9852
2036,9853
1996,9854
1953,9855
1936,9856
1959,9857
1996,9858
2005,9859
1982,9860
1942,9861
1930,9862
1953,9863
2005,9864
2051,9865
2057,9866
2025,9867
1983,9868
1963,9869
1970,9870
1963,9871
1998,9872
2055,9873
2078,9874
2063,9875
2021,9876
1994,9877
1996,9878
2037,9879
2078,9880
2085,9881
2057,9882
2017,9883
1994,9884
2006,9885
2051,9886
2081,9887
2078,9888
2042,9889
2007,9890
1999,9891
2035,9892
2084,9893
2100,9894
2081,9895
2034,9896
2002,9897
2004,9898
2043,9899
2013,9900
2065,9901
2092,9902
2085,9903
2043,9904
2006,9905
1996,9906
2027,9907
2073,9908
2089,9909
2075,9910
2037,9911
2010,9912
2007,9913
2047,9914
2091,9915
2103,9916
2079,9917
2039,9918
2020,9919
2035,9920
2085,9921
2115,9922
2111,9923
2075,9924
2042,9925
2037,9926
2071,9927
2119,9928
2137,9929
2161,9930
2166,9931
2134,9932
2093,9933
2071,9934
2079,9935
2117,9936
2133,9937
2116,9938
2071,9939
2034,9940
2024,9941
2047,9942
2079,9943
2081,9944
2043,9945
1989,9946
1959,9947
1966,9948
2010,9949
2047,9950
2055,9951
2028,9952
1994,9953
1979,9954
1996,9955
2043,9956
2074,9957
2064,9958
2015,9959
2039,9960
1997,9961
1970,9962
1973,9963
2011,9964
2039,9965
2031,9966
1990,9967
1939,9968
1914,9969
1927,9970
1989,9971
2061,9972
2122,9973
2184,9974
2275,9975
2412,9976
2593,9977
2764,9978
2871,9979
2869,9980
2742,9981
2579,9982
2426,9983
2297,9984
2158,9985
1974,9986
1734,9987
1480,9988
1306,9989
1512,9990
1551,9991
1611,9992
1687,9993
1741,9994
1766,9995
1773,9996
1793,9997
1850,9998
1951,9999
2051,10000
2107,10001
2105,10002
2073,10003
2060,10004
2079,10005
2125,10006
2154,10007
2154,10008
2123,10009
2095,10010
2090,10011
2117,10012
2158,10013
2172,10014
2155,10015
2115,10016
2086,10017
2089,10018
2131,10019
2126,10020
2170,10021
2191,10022
2173,10023
2127,10024
2091,10025
2084,10026
2115,10027
2161,10028
2178,10029
2158,10030
2118,10031
2091,10032
2097,10033
2139,10034
2175,10035
2174,10036
2143,10037
2103,10038
2088,10039
2117,10040
2173,10041
2207,10042
2205,10043
2168,10044
2133,10045
2125,10046
2158,10047
2207,10048
2228,10049
2245,10050
2251,10051
2222,10052
2184,10053
2166,10054
2184,10055
2224,10056
2241,10057
2221,10058
2177,10059
2150,10060
2150,10061
2188,10062
2239,10063
2257,10064
2237,10065
2196,10066
2166,10067
2165,10068
2202,10069
2235,10070
2235,10071
2203,10072
2159,10073
2145,10074
2162,10075
2210,10076
2236,10077
2227,10078
2185,10079
2162,10080
2110,10081
2075,10082
2069,10083
2099,10084
2124,10085
2111,10086
2063,10087
2005,10088
